"temp","humidity","spo2","pulserate","ECG"
25,21,17,13,9
25,23,18,13,8
26,5,-17,-39,-61
25,4,-28,-60,-92
26,3,-16,-35,-54
26,2,-21,-44,-67
27,1,-28,-57,-86
25,-6.428571429,-41,-75.57142857,-110.1428571
25,-10.14285714,-48.57142857,-87,-125.4285714
25,-13.85714286,-56.14285714,-98.42857143,-140.7142857
26,-17.57142857,-63.71428571,-109.8571429,-156
25,-21.28571429,-71.28571429,-121.2857143,-171.2857143
26,-25,-78.85714286,-132.7142857,-186.5714286
26,-28.71428571,-86.42857143,-144.1428571,-201.8571429
27,-32.42857143,-94,-155.5714286,-217.1428571
25,-36.14285714,-101.5714286,-167,-232.4285714
25,-39.85714286,-109.1428571,-178.4285714,-247.7142857
25,-43.57142857,-116.7142857,-189.8571429,-263
26,-47.28571429,-124.2857143,-201.2857143,-278.2857143
25,-51,-131.8571429,-212.7142857,-293.5714286
26,-54.71428571,-139.4285714,-224.1428571,-308.8571429
26,-58.42857143,-147,-235.5714286,-324.1428571
27,-62.14285714,-154.5714286,-247,-339.4285714
25,-65.85714286,-162.1428571,-258.4285714,-354.7142857
25,-69.57142857,-169.7142857,-269.8571429,-370
25,-73.28571429,-177.2857143,-281.2857143,-385.2857143
26,-77,-184.8571429,-292.7142857,-400.5714286
25,-80.71428571,-192.4285714,-304.1428571,-415.8571429
26,-84.42857143,-200,-315.5714286,-431.1428571
26,-88.14285714,-207.5714286,-327,-446.4285714
27,-91.85714286,-215.1428571,-338.4285714,-461.7142857
25,-95.57142857,-222.7142857,-349.8571429,-477
25,-99.28571429,-230.2857143,-361.2857143,-492.2857143
25,-103,-237.8571429,-372.7142857,-507.5714286
26,-106.7142857,-245.4285714,-384.1428571,-522.8571429
25,-110.4285714,-253,-395.5714286,-538.1428571
26,-114.1428571,-260.5714286,-407,-553.4285714
26,-117.8571429,-268.1428571,-418.4285714,-568.7142857
27,-121.5714286,-275.7142857,-429.8571429,-584
25,-125.2857143,-283.2857143,-441.2857143,-599.2857143
25,-129,-290.8571429,-452.7142857,-614.5714286
25,-132.7142857,-298.4285714,-464.1428571,-629.8571429
26,-136.4285714,-306,-475.5714286,-645.1428571
25,-140.1428571,-313.5714286,-487,-660.4285714
26,-143.8571429,-321.1428571,-498.4285714,-675.7142857
26,-147.5714286,-328.7142857,-509.8571429,-691
27,-151.2857143,-336.2857143,-521.2857143,-706.2857143
25,-1.729532278,0.369265379,0.236372698,0.849865379
25,-1.249302528,0.750044183,1.188376327,1.388126772
25,0.141951377,-0.515709674,-0.870500158,-0.080587438
26,-0.520653523,1.18707589,0.27678416,-0.526753138
25,-0.097784544,-0.975464886,0.401564588,-0.713955468
26,0.31626863,0.50525543,1.275345189,0.089831453
26,0.24566758,-0.316833065,1.353193862,0.556999809
27,-0.720444168,0.320700171,-0.528078264,-1.383698433
25,-0.276550655,0.256825793,0.893211914,-0.826602584
25,0.068462317,0.224545019,0.661719665,0.572130484
25,-1.545796897,-0.532425561,0.568635831,1.128633643
26,-1.25936932,0.260681166,2.221162013,1.150548414
25,1.279640361,-0.122567988,-0.517367928,-0.217941037
26,-0.273150507,-0.984729137,-1.919846237,0.111861351
26,-2.795823486,-0.620121164,-1.279266031,-0.674358516
27,2.287337039,-1.241424425,0.329242181,0.713263727
25,-0.463622896,0.677560446,0.337156634,1.210908623
25,-0.546080277,0.287764045,0.117173386,-0.38829398
25,-0.103754633,-0.427033735,-1.498596324,0.579714488
26,-1.784112985,0.055154003,0.61971918,-0.621731542
25,-1.704285341,-0.110884728,-1.06587033,2.015405504
26,-0.411062744,-0.068058437,0.551896884,-0.459813821
26,-0.405020385,-1.436345175,1.092663547,-1.073667192
27,0.011171374,0.004154698,0.111733509,-0.00035842
25,-1.086711628,0.74590685,0.234996558,-1.028016966
25,-0.008233198,0.85674243,-0.853285619,2.261278019
25,-0.545344167,0.917596703,-0.255526107,-0.574929623
26,-0.248706008,0.154646281,0.081477567,0.309245941
25,-1.065966383,-0.682027549,-1.440838504,1.399566445
26,0.044959928,-0.173205587,-0.879947083,-1.426320898
26,0.565408252,0.18166892,0.935903843,-0.258165808
27,1.299843966,2.133477025,0.254353364,-0.743042198
25,1.309614156,-1.020368679,0.707777892,1.769709608
25,0.369401081,-1.488007539,-2.593304626,-0.568937972
25,-0.271257582,0.282012214,0.957170745,-1.466507689
26,-1.646445572,-0.075176732,-0.371992106,-0.583668217
25,-1.422565224,-1.046518141,-0.315516271,-0.376453421
26,-0.357299112,-0.500009921,-1.33348216,-1.263932756
26,-1.400854981,-0.503883337,-1.40944371,0.292445776
27,0.106003265,0.420778996,1.780542371,0.010392922
25,0.451589392,-0.090381311,0.867718737,1.194310461
25,-0.553890291,-0.42103231,-0.247737916,0.875701838
25,0.604644402,-0.03453971,-1.255972663,0.025224001
26,0.266178923,0.141061533,1.255403346,0.205080442
25,0.761144944,-0.266730626,-0.380061586,0.845891206
26,-0.742081006,0.223086401,0.063416806,-1.749624875
26,-1.121493215,2.839205543,0.921400279,-1.405022173
27,1.083007324,0.76242296,-2.134481878,-0.194555928
25,0.789624607,-0.208866456,0.073191146,-0.323669473
25,-2.454114207,1.056286258,-1.638586898,-0.997721619
25,-0.776320689,-0.336877549,1.006393221,0.728697509
26,0.709595686,0.360434637,1.275477288,-0.478370282
25,1.5503138,-0.793713935,-1.200925302,-0.380172744
26,1.802492284,0.243229256,-0.962729653,-0.494054653
26,-0.442608335,0.934635593,0.614748502,-0.215868155
27,0.438610634,-0.619767875,1.60942579,0.865179639
25,-1.048649413,-0.932306865,0.032083401,-1.00178568
25,0.476415747,-0.201884563,-2.452781757,-0.688734057
25,-1.227654055,0.319734237,-0.308883512,-0.116526198
26,1.574550786,0.367174822,-0.65199448,0.437732726
25,0.230151435,-0.620859891,0.060804828,0.622922642
26,1.023002541,-0.802562744,1.881490395,-0.681952286
26,-0.40126023,0.522350229,0.399542104,-0.769464947
27,3.155915221,0.200906901,0.677664582,-2.036981781
25,0.885306531,-1.085613479,-0.393345021,-1.006627617
25,0.29512006,0.185480601,0.133624411,0.338676174
25,-2.567589167,-0.194526021,0.003084109,0.255948835
26,0.232032403,-0.365086574,0.438193301,-1.519792426
25,0.505882746,1.712735983,0.984807989,-0.510806413
26,1.205176585,-1.98933704,0.171253457,0.792540622
26,-0.795901799,0.631461318,0.56406966,-0.735451296
27,-0.900464783,0.24530676,-0.438966513,0.927915058
25,0.03581666,-1.161377346,-2.422359252,0.651766941
25,-0.657439126,-1.748785225,1.035984415,1.466380859
25,-1.588653788,-0.384572257,-0.017195881,-0.184708538
26,0.503883795,-2.031912648,-0.198553018,1.068546114
25,-0.82231565,-0.075478066,1.281144479,-1.307916261
26,-2.829008393,1.930234849,0.463731487,-1.41276431
26,-1.183826519,0.001683252,0.840031289,-1.114203568
27,-0.490600721,-0.389789798,0.329306813,1.314468382
25,-0.162332436,-1.413609766,-0.03162708,0.653511001
25,-0.657064882,0.204615157,0.140681725,0.279144171
25,0.570676409,0.470717836,1.022763125,-1.229317543
26,0.698042419,-2.781368758,-0.50224721,-1.080446758
25,-0.711298768,0.506438795,0.254999933,0.325902056
26,0.7848065,-1.063494409,-0.276097076,0.480286798
26,-0.151574352,-0.389725464,-0.92984045,-0.274047201
27,-0.982597079,-0.53793422,-0.591714675,-0.952056637
25,-0.692346222,2.145003605,-1.995300923,0.741756898
25,0.446492721,-0.596868996,1.017822641,0.970136496
25,1.028386666,-0.158128127,0.192949481,-0.557289365
26,0.251286472,-0.916141986,-0.008700895,-1.884269967
25,-0.247343145,1.682746357,-0.010352434,0.843495684
26,1.013263244,0.501522364,1.715178074,-1.097255518
26,-0.361434826,0.112420841,1.523040401,-2.05053045
27,0.457308573,1.896432337,-1.324122835,-1.616569702
25,0.743339337,1.46069403,-0.499400606,-0.537634231
25,-1.388805158,-0.228031041,-1.995369808,0.834143552
25,-0.236692455,-0.224657241,0.7334526,1.013605394
26,-0.231205002,-0.355480487,-2.122087564,-0.478797109
25,0.419508674,1.343178736,-1.345332859,0.313874483
26,-0.126883559,-0.940459755,0.294707669,-1.02645937
26,-1.385783417,0.104727519,1.874338735,0.674489347
27,0.234387341,0.670149894,-1.188976887,0.322316912
25,-0.719485965,-0.366374479,1.054700057,0.124797167
25,-0.428032381,-0.988991066,-0.288936953,-0.014176438
25,1.882392046,1.524988446,-0.5276117,2.168342212
26,-0.229086462,-0.189302938,-1.122807994,1.48887625
25,-0.277935875,-0.192292103,0.864470545,0.666829716
26,0.964423035,-0.288807581,0.156896399,-1.393744891
26,-1.146329902,0.039412262,1.449419927,-0.665379312
27,1.321834084,0.11274188,-1.285901716,0.246385964
25,0.076124808,0.537976256,-0.696639376,1.019552738
25,-1.542454636,0.424007716,1.261532973,-0.883391965
25,0.475435957,0.568023043,-0.633357028,1.01655091
26,-0.622811535,-0.195625405,0.557565767,-0.349130383
25,-1.167019788,0.687843525,-0.833056105,-0.923236989
26,-0.856274935,1.279888532,0.5407447,0.832755213
26,0.179821824,-0.131490809,0.833301697,-0.449339814
27,0.039438088,0.018661306,-1.223138376,-0.368082712
25,0.00200015,0.402068747,0.737653772,-0.445839201
25,-1.051816291,1.705560889,-1.134033257,-0.202091998
25,-0.688441951,-0.592788272,-0.395944957,-0.113893004
26,-0.371771136,-0.653367375,0.864567886,2.373272716
25,-2.26233749,-0.462332726,0.068447032,1.557585592
26,2.253588445,-0.240586078,-0.346118517,0.659562294
26,1.197659653,-0.116814563,-0.393209968,-1.394971144
27,0.164219068,0.234828144,0.690606844,-0.800327424
25,0.668144773,-1.36293213,0.139759503,0.341762205
25,-0.272441737,-0.533722119,-0.314000168,-0.313138307
25,0.578008792,-0.363219982,-0.01291142,-0.112303691
26,1.273915539,0.428998366,-0.546363996,-0.364586515
25,0.8080205,0.07741321,-0.264577075,-0.601360186
26,2.236901078,1.006509968,-0.307585866,-0.320384382
26,-0.859145429,0.321509011,1.083010171,-0.53608534
27,-1.594657424,-0.416961794,-1.597335947,-0.726935141
25,-1.523711394,0.430262017,-0.028073682,-0.29056787
25,0.963062402,-0.671017412,1.091802648,-1.502704918
25,0.252809731,-1.421425131,-0.474990976,1.170168721
26,0.785672744,-0.193449459,0.549522915,0.011169714
25,1.139561308,0.655219047,-0.389222547,-0.468198255
26,0.97810688,0.460890621,0.739713986,-0.993870002
26,0.065686587,-0.312835515,-0.351036498,0.305341736
27,-0.892009428,-0.636143494,1.18644187,1.178254901
25,-0.976515207,-0.088934119,-0.47915922,1.211566789
25,-0.069226406,0.755794578,0.447066574,-0.424898963
25,1.011574942,-0.317953347,-1.063508234,0.598993472
26,1.482008702,-0.987372832,-0.615737689,0.433880848
25,-0.549449273,1.205546152,0.185713336,-0.521533471
26,-1.249238118,1.551808524,1.019191928,-0.363386992
26,-1.094103988,-0.75774004,-1.073012753,-0.710476891
27,0.04337709,0.183983909,-0.11977264,0.526174207
25,-0.797073001,0.501343161,0.394824611,-0.024313479
25,0.147533578,1.425610298,-1.187200229,1.150633379
25,-0.478140746,0.884764021,-1.274620937,0.22222441
26,-0.818920148,-2.155708098,1.569684018,1.072655105
25,0.041121049,1.694857575,0.666272697,-0.143980601
26,-1.350216598,1.784908582,0.485764696,1.022137913
26,-1.329682825,-0.260681315,0.368607222,-0.063164702
27,-2.300276813,-0.630931964,-0.004329776,0.29059616
25,-0.842108647,-1.112028946,0.164774741,0.968963445
25,-1.135802697,-1.06051361,0.391075931,-2.065538464
25,-0.980571901,0.071470149,1.202013999,0.096744864
26,0.690839594,-1.476650465,-1.3262036,-0.784246664
25,-0.471576219,-1.239512034,0.403709288,-0.071027799
26,-0.254971384,-1.289904371,-1.578518817,0.195369952
26,-1.910357603,0.338730276,0.882762652,-0.909065573
27,0.431278208,-0.712561883,-1.156551187,0.952621469
25,-2.0867332,-0.122702989,1.237338281,-0.899119371
25,-0.295311966,-0.405136625,-0.047031622,-1.056006356
25,-0.243562084,0.261635086,1.449345692,-1.02239277
26,-1.451824921,1.004134632,0.393278221,0.899253401
25,0.015469116,0.797116815,0.284150931,0.843529818
26,-0.291321318,-0.239716058,0.563186734,1.214481497
26,-0.348733691,-1.452335325,1.447132065,-1.195624553
27,0.744223857,0.38636686,0.282235381,2.437082705
25,1.417759206,-1.505484007,-0.001591524,0.062000618
25,-0.463835113,1.1172959,0.265584561,0.087094205
25,1.167388267,-0.943570495,1.144732218,-0.88703238
26,1.722368242,1.270179328,-0.17960732,1.105537656
25,0.946257485,0.338003524,-0.566006713,-0.58073697
26,-0.119277646,0.72375545,0.698143902,-1.302050474
26,1.059463458,0.362434903,0.993099838,1.263088134
27,1.209674762,-0.778027775,0.36658822,-0.23654067
25,-2.411857903,0.220423028,0.412471348,0.858089531
25,0.47657215,0.477674785,-0.047829801,0.071136869
25,-0.573894591,-1.146622396,-0.908882106,-0.536810641
26,0.464445722,-2.406092992,-1.681559907,-2.320316652
25,0.136507152,-0.236414866,1.391025246,0.288979918
26,-0.397509334,-0.726788682,-2.414140496,0.377636468
26,1.404051056,-0.342832903,-0.672811409,1.261350876
27,0.258464519,-1.603964262,1.248812456,0.093439643
25,1.137894088,0.055867306,-0.026768782,0.012407866
25,-2.224101621,1.073894735,-0.877695737,-0.591253956
25,-1.286198203,-1.001340325,0.555906099,0.707092076
26,-0.303028459,-1.680801204,1.396505322,1.308293798
25,-0.968837403,1.097635841,-2.753525562,-1.01700679
26,-1.488848133,0.617015858,0.594338046,1.131901526
26,-0.814118043,-0.297309103,-0.725639422,0.494681771
27,-1.200244073,0.341885072,0.971783008,-1.546331175
25,0.982485994,0.048579871,-2.710245036,-1.380072483
25,0.184513008,0.543688357,1.290156671,-0.88964792
25,0.951389408,0.173991836,-0.178981399,0.575657884
26,-0.109286823,0.221555999,1.651250189,-1.241618263
25,0.732051537,0.685231136,-1.9976967,-1.8764916
26,-2.35537801,-0.002415909,-0.640703364,-0.251766711
26,-0.696411787,1.438311875,-0.359167351,-0.23733192
27,2.654814588,-1.964393371,1.285562451,-1.249691691
25,-0.168679319,-1.950995256,-0.480113333,-1.043491221
25,1.596918821,-1.196961242,0.394017423,0.529348138
25,0.432192938,-1.205659618,-4.146974079,-0.972695086
25,-0.146330853,-0.742113349,-2.035727436,0.911964206
26,-0.104897442,-1.333643906,-0.410092655,0.761696739
25,0.18278294,1.965379727,0.727488606,-0.403138793
26,2.325844571,0.646336882,0.793417242,1.630203182
26,0.087019211,-0.167126818,0.227684898,-0.660576067
27,-0.143572233,0.437152576,-1.699075561,-0.927030866
25,1.092494607,-0.722697193,0.01778446,-0.0644808
25,0.862252714,0.482961916,-0.47022964,-0.006235033
25,-1.419314617,-0.852833833,0.206728215,0.965764171
26,-1.310534293,0.496589149,0.331059296,-0.898961714
25,0.869276887,-1.690248788,1.012757593,-0.596128544
26,-0.552845995,0.707879958,0.330274514,0.844213238
26,-1.221783909,0.052251275,-0.609970238,-0.934429283
27,1.014497028,1.330394709,0.675951611,0.956315182
25,-0.522486031,1.246355534,0.097278294,0.707782599
25,1.045613649,1.554977121,0.230248333,-0.313201782
25,-1.791618222,0.003291103,0.669586349,0.072791825
26,-0.388880706,-0.324000163,0.373889067,-0.290962417
25,0.380803852,0.927645481,-0.601620715,0.250611176
26,-0.200519096,-0.096604003,-0.389061378,-0.233979014
26,-0.412215976,1.424376788,0.283085733,0.589838278
27,0.763789553,-0.774791334,-1.270019469,-1.027131261
25,1.396610584,-0.907413123,1.164312534,0.5910572
25,-0.034306705,0.104386006,-0.143752101,-1.440964393
25,2.328477197,0.261885339,0.624554145,0.702645916
26,-1.337058795,-1.645101247,-0.081647745,-3.209567154
25,-0.855129884,-0.123343279,1.236443486,0.344095315
26,0.532180112,0.111201022,0.276826673,0.57929047
26,0.914413723,-0.203289274,-0.29344923,0.753744019
27,-0.144312642,-0.252916691,-2.364044649,-0.205942298
25,-1.526651198,-1.543769915,0.553942349,0.956109905
25,0.996343712,1.608767821,-0.975933142,-0.308796543
25,0.184531758,1.28026716,2.564584571,0.467871197
26,1.702556125,-0.35952836,1.675471248,0.352742438
25,-1.731048746,0.358042016,-0.091024979,-0.182359418
26,-0.7315469,-2.428704454,-0.591508657,-1.458572535
26,0.128548422,0.416070427,1.237664458,1.811386152
27,0.567660871,-1.02167699,1.019929903,-1.930623557
25,0.939080232,0.725341944,-1.155804198,-0.857533306
25,-0.667321643,1.076285461,-1.342762688,-1.684127515
25,1.24595232,0.232619845,1.196538108,0.436014465
26,0.80324684,0.682874382,0.228630378,-1.167112124
25,0.378815655,-0.052032027,-1.459605543,0.636361301
26,-1.89945293,0.151119701,-0.932006327,1.565130311
26,0.48868524,1.165406769,1.895908333,0.481483498
27,0.476629308,-0.944695429,2.774376097,0.002996442
25,0.026623365,-1.385334918,0.36230207,1.887280366
25,0.378881014,1.29760383,-0.209155038,-0.450708136
25,-0.076193312,0.764206648,-1.790298137,-1.689179352
26,-1.937126471,0.711242388,-0.758167891,1.314507204
25,-0.30862809,-0.023334738,0.792072698,-0.869724461
26,-1.519660122,0.099819333,-0.99401601,0.944736755
26,-0.021063348,-1.189031039,-1.14290592,0.154524244
27,-0.331722518,-2.86960422,0.140179293,-0.375587377
25,0.834295129,1.792544782,-0.629994031,0.661886283
25,-1.443474411,1.280277325,0.751352628,0.816263788
25,1.344562276,0.531602373,0.071622809,-0.128567521
26,1.160282935,0.737319429,0.111522132,-1.466729094
25,-0.684685688,-1.448593247,-0.483928215,-1.514498905
26,-0.733229681,-0.44915437,0.553231792,2.104996602
26,-0.432196385,1.15366948,-0.603170579,-2.527996285
27,0.503907602,-0.150928238,-1.393508122,1.129787169
25,-0.835324183,-0.014067187,1.006364295,-0.236580522
25,-0.487857371,0.859035441,0.212898446,-0.420297403
25,0.076949113,-1.538500337,0.40838362,1.569923471
26,-0.100085583,-1.192599209,-0.290311592,0.176040058
25,-0.068578443,-0.990451038,0.707526257,-0.717997068
26,1.868488686,0.012208316,-0.052693751,0.345207231
26,0.117642248,-0.387932656,0.896984857,-1.084325605
27,0.112675719,1.729098249,0.38524439,0.396698171
25,-1.847315547,0.152100813,-1.840381918,-0.346897573
25,1.618482512,1.987518372,0.182709322,-0.128666623
25,0.078900759,0.157028873,1.989838972,0.707076473
26,-0.27667226,1.727662756,0.49718513,-0.1748459
25,-0.57275581,-0.393313007,0.280032155,0.831156906
26,1.939175816,-0.845302604,-1.292195459,-0.688217397
26,-1.2260929,0.119291997,1.578480001,0.807091222
27,1.783194062,-1.063433365,0.031497377,-1.419932153
25,-1.016421821,-0.632418143,-0.0997537,0.158116754
25,-0.284559652,0.23988907,0.089797298,0.022496282
25,-0.025897621,-1.951742087,0.381153243,-0.223211733
26,0.748151129,0.677077305,0.914745699,-0.757659587
25,0.514548968,-0.561171897,-0.112592775,0.566932441
26,1.682420049,-1.104985444,-2.157232202,1.702893016
26,-1.191310505,-1.290041008,0.839542579,1.936048631
27,-0.948940787,-1.307834905,-0.540173538,0.941494272
25,-0.536973043,-0.021692907,1.201462669,0.885493921
25,0.073723099,-0.873279685,0.102419578,0.730843064
25,-0.054948966,0.474143878,-0.782775981,0.578135627
26,0.417167464,-0.981186508,0.536978218,1.578012311
25,0.634661491,-0.6955443,0.012540185,1.657685301
26,0.110731949,-0.542415268,0.295551884,-0.959405505
26,-0.685182471,0.285146097,-1.515119402,0.111031488
27,-0.833081456,-0.965157257,1.439734019,-0.595191184
25,0.107365214,0.162194842,-0.967838027,-0.098146516
25,0.307356833,0.113879897,0.941341351,-1.687777071
25,0.54014674,0.719004966,1.261655107,0.442538316
26,-0.442806378,-0.33282326,-1.017553003,-0.403625572
25,1.400383918,0.843439932,-0.134130366,0.793791819
26,1.147568021,0.428135594,0.845428192,-0.727604937
26,-0.959009269,0.846789486,-1.192708197,-0.467066188
27,-0.586651301,-0.431018863,0.448499318,1.384266215
25,0.87272414,-0.015750038,-0.369163203,-2.133707126
25,1.534162323,-0.556587205,1.378769776,0.009902677
25,-0.689718201,1.532109904,0.554022781,0.345785065
26,0.061812111,0.700379104,-1.47871802,0.56944703
25,-0.001187715,-0.578972675,-0.019874988,-2.270778917
26,0.424094654,-0.588834904,-0.771680543,-0.068973235
26,0.550626769,0.079131927,-0.229224978,1.029546419
27,-0.682695509,1.325890287,0.751013528,-1.047523248
25,-0.328303429,-0.283226256,0.824205172,-1.166066902
25,1.415918334,0.060005792,0.680090367,-1.982637078
25,-0.217904555,1.680458046,-0.862271894,-0.598235469
26,-1.355614785,1.471783356,-1.149896324,-1.158392162
25,-0.065593268,-0.471655238,1.490525907,0.87056741
26,-0.445370626,1.334630799,-0.131331214,-0.434650584
26,0.045655902,1.228494347,0.094677827,0.000897665
27,-0.009620791,0.35608211,0.380320182,-0.576681932
25,1.910453504,-0.0641687,0.507306457,-0.053185921
25,-2.103261003,0.640349776,1.843000679,1.374596429
25,-0.142910597,-1.044003306,-0.336579172,1.429164604
26,-0.29659239,1.202971811,0.413795497,-0.485764986
25,-1.457108482,-0.034293029,0.800675944,0.667017704
26,0.374534588,-0.08886379,-0.403217708,-0.520653523
26,0.403588665,-0.276734255,-0.107841842,-0.097784544
27,1.13799065,-1.017310731,0.227273485,0.31626863
25,-1.356082887,-1.376973159,-1.531018775,0.24566758
25,-0.415027501,0.136013207,-2.578267979,-0.720444168
25,-0.334419366,-2.134718967,-0.354110503,-0.276550655
25,0.434085773,-0.125002931,-0.904000758,0.068462317
26,-0.274645742,1.645574732,0.063238333,-1.545796897
25,-0.278962408,1.174042659,-0.133468987,-1.25936932
26,-0.888633596,0.001358242,0.669054579,1.279640361
26,0.789142286,0.778931584,0.151447141,-0.273150507
27,1.32311999,-0.695180604,-1.124872399,-2.795823486
25,-0.220786117,0.095131195,0.838682809,2.287337039
25,0.898414766,0.033683299,-1.478401453,-0.463622896
25,1.051563881,0.437528804,2.206156665,-0.546080277
26,0.199612479,-1.394389428,0.420672897,-0.103754633
25,-0.392824198,-0.639901451,0.517408227,-1.784112985
26,0.064597862,0.402731012,-0.3298256,-1.356082887
26,0.436558529,1.915993216,-0.049330447,-0.415027501
27,0.280908895,-1.173237489,0.554278748,-0.334419366
25,-0.516160976,1.569539733,-1.908190225,0.434085773
25,0.406798129,0.679633249,-0.294892133,-0.274645742
25,-1.874825593,-1.149090418,-0.472615204,-0.278962408
26,1.191995147,-0.871641587,1.34619387,-0.888633596
25,1.056852155,0.368769908,1.815982337,0.789142286
26,-0.354576507,0.564861802,0.075586555,1.32311999
26,2.129414364,1.429927781,1.418947764,-0.220786117
27,-1.200223898,-0.780771173,0.985955321,0.898414766
25,0.527040309,-1.340252433,-0.623343593,1.051563881
25,1.257204451,-0.495572128,0.034637949,0.199612479
25,-0.439002997,0.261320743,-0.457439595,-0.392824198
26,0.476947906,0.470748152,-0.050185647,0.306829409
25,-0.721784651,0.851896945,0.913855179,-0.777777348
26,-0.905689438,0.289215858,0.515719011,0.552099753
26,1.03438315,-0.055278077,0.733190664,-0.197460667
27,0.111704717,-0.804963363,-0.829212473,0.217224439
25,-1.785758185,0.06144125,-1.499199332,0.19355587
25,0.166155802,-0.3136422,0.232828302,0.271162299
25,0.890856081,-0.046089678,-0.386073609,-0.278150325
26,0.180594427,-0.488647164,-0.851580776,-0.387683654
25,-0.849663181,-1.537328707,-0.251331883,-0.485643738
26,-0.787653335,-0.728844926,0.990214779,0.50559881
26,0.435952345,-0.254866037,-0.984617435,0.077779118
27,-1.991571444,0.343135239,0.764172293,0.828270053
25,1.312682892,0.54530186,0.131264813,1.004414112
25,0.511451493,-0.261220558,0.538433324,-2.520706654
25,0.20237985,-0.470877845,-0.661257724,-0.875742472
26,1.185163989,0.08300816,0.565440331,-1.268335618
25,1.072481809,-0.215760893,-0.069631292,0.792891206
26,0.316382383,0.080695001,0.397091438,1.178989442
26,0.645879848,0.99860988,-1.680114798,0.330413948
27,0.023918958,-0.490330411,-0.679437239,-0.230065082
25,0.114222906,0.124302361,2.182063095,0.907281512
25,-0.786665305,0.660337692,1.012340266,-0.432507616
25,0.499363283,2.204566497,0.01808381,-0.384272631
26,-0.358714803,0.356823679,1.717846293,-1.277619014
25,0.588425936,-1.061312101,0.457711983,-0.754521097
26,-2.281479833,-1.259219328,-0.22094979,-0.770804917
26,-0.953210703,-0.26961251,-0.371761103,-0.184778262
27,-0.721783371,0.301024608,1.299843331,1.447055385
25,2.136953096,0.817994277,0.28072215,1.666932752
25,-0.012609493,0.541302175,2.042957182,-0.035678225
25,0.328620272,0.615514147,0.699899825,0.484471586
26,1.093871245,1.47643239,-0.710644209,-0.793083903
25,-0.528078264,-1.383698433,-0.94839937,-0.516160976
26,0.893211914,-0.826602584,0.752670685,0.406798129
26,0.661719665,0.572130484,0.437898757,-1.874825593
27,0.568635831,1.128633643,0.193149642,1.191995147
25,2.221162013,1.150548414,-0.711351132,1.056852155
25,-0.517367928,-0.217941037,1.535770792,-0.354576507
25,-1.919846237,0.111861351,1.222876508,2.129414364
26,-1.279266031,-0.674358516,-1.06011749,-1.200223898
25,0.329242181,0.713263727,0.00208516,0.527040309
26,0.337156634,1.210908623,1.341344305,1.257204451
26,0.117173386,-0.38829398,-0.795063501,-0.439002997
27,-1.498596324,0.579714488,0.569440248,0.476947906
25,0.61971918,-0.621731542,-0.569135845,-0.721784651
25,-1.06587033,2.015405504,-0.487369514,-0.905689438
25,0.551896884,-0.459813821,0.284038193,1.03438315
26,1.092663547,-1.073667192,-0.009418416,0.111704717
25,0.111733509,-0.00035842,-0.427422608,-1.785758185
26,0.234996558,-1.028016966,-0.851750886,0.166155802
26,-0.853285619,2.261278019,-0.145268961,0.890856081
27,-0.255526107,-0.574929623,0.369441707,0.180594427
25,0.081477567,0.309245941,0.432916138,-0.849663181
25,-1.440838504,1.399566445,0.202797774,-0.787653335
25,-0.879947083,-1.426320898,1.570003674,0.435952345
26,0.935903843,-0.258165808,-0.790495076,-1.991571444
25,0.254353364,-0.743042198,0.047374925,1.312682892
26,0.707777892,1.769709608,-0.150991932,0.511451493
26,-2.593304626,-0.568937972,0.701456679,0.20237985
27,0.957170745,-1.466507689,0.181527516,1.185163989
25,-0.371992106,-0.583668217,-0.378841842,1.072481809
25,-0.315516271,-0.376453421,0.019597518,0.316382383
25,-1.33348216,-1.263932756,1.945085774,0.645879848
26,-1.40944371,0.292445776,-0.469900923,0.023918958
25,1.780542371,0.010392922,-1.1735616,0.114222906
26,0.867718737,1.194310461,-0.99452975,-0.786665305
26,-0.247737916,0.875701838,-0.332365237,0.499363283
27,-1.255972663,0.025224001,-0.57464284,-0.358714803
25,1.255403346,0.205080442,0.986137037,0.588425936
25,-0.380061586,0.845891206,-0.301050526,-2.281479833
25,0.063416806,-1.749624875,0.771015295,-0.953210703
26,0.921400279,-1.405022173,-0.56958016,-0.721783371
25,-2.134481878,-0.194555928,1.572401724,2.136953096
26,0.073191146,-0.323669473,-1.093980883,-0.012609493
26,-1.638586898,-0.997721619,0.250375526,0.328620272
27,1.006393221,0.728697509,0.581417289,1.093871245
25,1.275477288,-0.478370282,2.599139088,1.034034099
25,-1.200925302,-0.380172744,-0.342762468,0.385082029
25,-0.962729653,-0.494054653,-1.030622763,-0.547634479
26,0.614748502,-0.215868155,0.622918968,-0.075299482
25,1.60942579,0.865179639,1.265912934,0.399403655
26,0.032083401,-1.00178568,0.472441041,0.19749279
26,-2.452781757,-0.688734057,0.777788607,-1.67572205
27,-0.308883512,-0.116526198,-0.083208719,-0.469368656
25,-0.65199448,0.437732726,0.897955106,-0.849200198
25,0.060804828,0.622922642,0.553640739,1.285300267
25,1.881490395,-0.681952286,-0.124157788,1.628721015
26,0.399542104,-0.769464947,-1.310332622,-1.50423054
25,0.677664582,-2.036981781,-0.701874609,0.947830967
26,-0.393345021,-1.006627617,0.349135238,-1.019056322
26,0.133624411,0.338676174,-0.094487006,0.457509456
27,0.003084109,0.255948835,0.105430352,0.142706307
25,0.438193301,-1.519792426,0.653643397,-0.609027137
25,0.984807989,-0.510806413,0.28848221,0.091696296
25,0.171253457,0.792540622,0.217940865,-0.385309093
26,0.56406966,-0.735451296,1.466718632,-0.085868109
25,-0.438966513,0.927915058,0.435050592,-0.270502351
26,-2.422359252,0.651766941,0.935010783,0.350112288
26,1.035984415,1.466380859,2.278334169,-0.628824562
27,-0.017195881,-0.184708538,-1.483316017,-0.337350356
25,-0.198553018,1.068546114,-0.074827877,-1.300554483
25,1.281144479,-1.307916261,-1.114595113,0.925077057
25,0.463731487,-1.41276431,0.265313085,0.880608557
25,0.840031289,-1.114203568,-0.372717744,0.850501622
26,0.329306813,1.314468382,-1.543694536,1.327258094
25,-0.03162708,0.653511001,-0.619909718,-0.614201401
26,0.140681725,0.279144171,1.349874584,-0.090994945
26,1.022763125,-1.229317543,1.002615078,-1.405790463
27,-0.50224721,-1.080446758,-1.484254619,0.609514919
25,0.254999933,0.325902056,0.120751223,-0.644806588
25,-0.276097076,0.480286798,-0.465328225,-1.069090556
25,-0.92984045,-0.274047201,-0.792169454,-1.074582629
26,-0.591714675,-0.952056637,0.134810916,1.009629087
25,-1.995300923,0.741756898,-0.35585746,-0.754572019
26,1.017822641,0.970136496,-0.590837104,0.592263707
26,0.192949481,-0.557289365,1.050401433,1.872592315
27,-0.008700895,-1.884269967,-0.322243164,-1.766045841
25,-0.010352434,0.843495684,-0.011755919,0.342835572
25,1.715178074,-1.097255518,0.111787527,0.379209349
25,1.523040401,-2.05053045,2.190620629,0.06996927
26,-1.324122835,-1.616569702,-0.192618018,1.662963071
25,-0.499400606,-0.537634231,-2.315910539,-0.156339983
26,-1.995369808,0.834143552,1.296844224,-0.187324794
26,0.7334526,1.013605394,-0.298969946,-2.631030003
27,-2.122087564,-0.478797109,0.854955658,0.238479579
25,-1.345332859,0.313874483,-1.54818696,-0.804485187
25,0.294707669,-1.02645937,-0.544913516,0.32221213
25,1.874338735,0.674489347,0.432055129,-0.097598933
26,-1.188976887,0.322316912,-0.514549433,0.069506621
25,1.054700057,0.124797167,-1.891297778,-0.123814379
26,-0.288936953,-0.014176438,-1.123192133,0.276890022
26,-0.5276117,2.168342212,-0.395809605,-0.632926845
27,-1.122807994,1.48887625,0.939191666,0.433728761
25,0.864470545,0.666829716,-0.024817892,1.382025237
25,0.156896399,-1.393744891,1.357575528,-0.438898186
25,1.449419927,-0.665379312,-0.63082906,1.568051014
26,-1.285901716,0.246385964,-0.638364345,-0.547018183
25,-0.696639376,1.019552738,0.73910705,-0.836006476
26,1.261532973,-0.883391965,-0.599561626,-1.222951191
26,-0.633357028,1.01655091,-0.255311772,0.896251622
27,0.557565767,-0.349130383,0.902200804,-0.0324177
25,-0.833056105,-0.923236989,-0.664263979,1.246916165
25,0.5407447,0.832755213,0.353279702,0.563712092
25,0.833301697,-0.449339814,-0.305609655,2.740907398
26,-1.223138376,-0.368082712,-0.912034291,-0.38651071
25,0.737653772,-0.445839201,-0.680468448,1.037577779
26,-1.134033257,-0.202091998,0.366262095,0.060705292
26,-0.395944957,-0.113893004,0.440720083,-1.399295929
27,0.864567886,2.373272716,-0.117455502,-1.369079379
25,0.068447032,1.557585592,-0.715136541,-1.172844208
25,-0.346118517,0.659562294,-0.273910392,1.044371668
25,-0.393209968,-1.394971144,-0.681011051,2.014180902
26,0.690606844,-0.800327424,-0.899160057,-0.299372269
25,0.139759503,0.341762205,0.539530705,0.176780134
26,-0.314000168,-0.313138307,-1.284417337,0.033609529
26,-0.01291142,-0.112303691,-0.825067921,1.113842207
27,-0.546363996,-0.364586515,1.740342591,0.482204936
25,-0.264577075,-0.601360186,-0.312433431,-0.959246895
25,-0.307585866,-0.320384382,0.233235264,0.303911601
25,1.083010171,-0.53608534,-0.300496761,-1.06855716
26,-1.597335947,-0.726935141,-0.368679466,-0.966483174
25,-0.028073682,-0.29056787,0.683717625,-0.503474023
26,1.091802648,-1.502704918,-0.404776172,0.574159497
26,-0.474990976,1.170168721,-0.736759905,-0.010878426
27,0.549522915,0.011169714,1.521683285,-1.166026087
25,-0.389222547,-0.468198255,1.528451341,1.283422271
25,0.739713986,-0.993870002,0.232394821,-0.06792971
25,-0.351036498,0.305341736,-0.07583153,0.04590676
26,1.18644187,1.178254901,-1.458651723,-0.314835723
25,-0.47915922,1.211566789,-0.907759785,-0.674730056
26,0.447066574,-0.424898963,1.284727812,0.845261392
26,-1.063508234,0.598993472,-0.963522346,-1.634393733
27,-0.615737689,0.433880848,-0.24148391,-1.15838147
25,0.185713336,-0.521533471,-1.065173449,0.753270764
25,1.019191928,-0.363386992,1.051041232,0.610479196
25,-1.073012753,-0.710476891,0.151895076,-0.179151367
26,-0.11977264,0.526174207,1.76106785,0.181030421
25,0.394824611,-0.024313479,-0.997691362,2.047297463
26,-1.187200229,1.150633379,-0.038635165,1.662167014
26,-1.274620937,0.22222441,0.552176474,-1.221633299
27,1.569684018,1.072655105,-0.114569936,-1.096251047
25,0.666272697,-0.143980601,-0.697676613,0.213034888
25,0.485764696,1.022137913,-1.017592932,-0.102637122
25,0.368607222,-0.063164702,-0.942518385,-0.053201167
26,-0.004329776,0.29059616,-0.901164043,-0.900817044
25,0.164774741,0.968963445,0.264643747,0.353166904
26,0.391075931,-2.065538464,1.201331308,-0.728425732
26,1.202013999,0.096744864,-0.168297641,0.85256401
27,-1.3262036,-0.784246664,-0.594280572,-0.250346001
25,0.403709288,-0.071027799,-1.796387291,-0.816101271
25,-1.578518817,0.195369952,-1.365680471,0.186175305
25,0.882762652,-0.909065573,-0.230407628,-0.105262589
26,-1.156551187,0.952621469,1.15203931,0.610121417
25,1.237338281,-0.899119371,-0.295892128,-0.747272048
26,-0.047031622,-1.056006356,-0.737924098,-0.909609922
26,1.449345692,-1.02239277,-0.769247767,-0.143002833
27,0.393278221,0.899253401,-1.622980193,-2.180999078
25,0.284150931,0.843529818,0.390309351,0.733732214
25,0.563186734,1.214481497,-2.108308911,0.248258733
25,1.447132065,-1.195624553,-0.861032295,0.162341974
26,0.282235381,2.437082705,1.420606326,-0.752942396
25,-0.001591524,0.062000618,1.294446194,0.247655987
26,0.265584561,0.087094205,1.413010109,-0.251799952
26,1.144732218,-0.88703238,0.511061456,0.342599473
27,-0.17960732,1.105537656,2.100170792,-0.191020823
25,-0.566006713,-0.58073697,-1.114865396,-0.351698397
25,0.698143902,-1.302050474,-1.103375766,-0.298585503
25,0.993099838,1.263088134,-0.337908629,1.623596352
26,0.36658822,-0.23654067,0.214633856,-1.881948204
25,0.412471348,0.858089531,1.771423238,-0.040130336
26,-0.047829801,0.071136869,-0.866659459,-0.163201219
26,-0.908882106,-0.536810641,1.052741738,0.164071394
27,-1.681559907,-2.320316652,0.783358793,0.758591038
25,1.391025246,0.288979918,-0.670320201,0.548744924
25,-2.414140496,0.377636468,0.261982277,-1.03733479
25,-0.672811409,1.261350876,-1.260429626,0.085104692
26,1.248812456,0.093439643,-0.420047543,0.873925243
25,-0.026768782,0.012407866,1.79078113,0.472898134
26,-0.877695737,-0.591253956,0.815218677,0.398792586
26,0.555906099,0.707092076,-0.861464664,-2.024988352
27,1.396505322,1.308293798,-0.293782705,0.3934901
25,-2.753525562,-1.01700679,0.143765443,1.3443018
25,0.594338046,1.131901526,-0.229683306,0.834658537
25,-0.725639422,0.494681771,0.308357861,-0.354963053
26,0.971783008,-1.546331175,0.330397194,0.531688379
25,-2.710245036,-1.380072483,0.189049288,2.382702075
26,1.290156671,-0.88964792,0.688309447,-0.739954103
26,-0.178981399,0.575657884,-1.056555061,0.673677885
27,1.651250189,-1.241618263,-0.529491358,-0.610302617
25,-1.9976967,-1.8764916,-0.938462008,-0.12017499
25,-0.640703364,-0.251766711,-0.734341542,-0.284217442
25,-0.359167351,-0.23733192,1.424844466,-0.725325775
25,1.285562451,-1.249691691,1.401758256,-0.870720108
26,-0.480113333,-1.043491221,-1.801870178,1.78435212
25,0.394017423,0.529348138,-1.547737255,0.816780267
26,-4.146974079,-0.972695086,-2.571858018,-0.392798583
26,-2.035727436,0.911964206,-1.052243556,0.704119356
27,-0.410092655,0.761696739,1.215140272,0.833806453
25,0.727488606,-0.403138793,0.369800441,-0.633685902
25,0.793417242,1.630203182,0.508451463,0.548339857
25,0.227684898,-0.660576067,1.120071024,-0.621279675
26,-1.699075561,-0.927030866,0.240227248,-0.460960497
25,0.01778446,-0.0644808,0.449675192,-0.264245352
26,-0.47022964,-0.006235033,0.18374379,-0.221517925
26,0.206728215,0.965764171,-1.162687424,-0.821086655
27,0.331059296,-0.898961714,0.012440907,-1.184193746
25,1.012757593,-0.596128544,0.480309202,-0.058926105
25,0.330274514,0.844213238,-1.073010533,0.124121264
25,-0.609970238,-0.934429283,-0.369342803,-0.835429717
26,0.675951611,0.956315182,-2.12366731,-2.200221807
25,0.097278294,0.707782599,2.122103091,-0.417906073
26,0.230248333,-0.313201782,-0.573088594,0.765471809
26,0.669586349,0.072791825,-0.360734109,0.132070148
27,0.373889067,-0.290962417,-0.602932636,0.014113903
25,-0.601620715,0.250611176,-0.378925722,0.306316719
25,-0.389061378,-0.233979014,-0.81619768,-0.949971915
25,0.283085733,0.589838278,-0.981769544,0.967800265
26,-1.270019469,-1.027131261,-0.070798269,-2.275152299
25,1.164312534,0.5910572,2.692563352,1.646699928
26,-0.143752101,-1.440964393,0.967896914,1.170583731
26,0.624554145,0.702645916,-1.288910294,-0.665438
27,-0.081647745,-3.209567154,-0.109008566,-0.090368724
25,1.236443486,0.344095315,-0.978620392,-0.60082822
25,0.276826673,0.57929047,0.100852836,0.753153571
25,-0.29344923,0.753744019,-0.143131655,-1.32806726
26,-2.364044649,-0.205942298,0.140903955,-2.135966596
25,0.553942349,0.956109905,-1.235153436,-0.32585548
26,-0.975933142,-0.308796543,-1.249421454,-1.423474508
26,2.564584571,0.467871197,0.630701395,-0.098728379
27,1.675471248,0.352742438,2.689655969,-0.685976179
25,-0.091024979,-0.182359418,-0.513350114,0.817564883
25,-0.591508657,-1.458572535,0.507202732,-1.290486806
25,1.237664458,1.811386152,-1.046844064,2.407414703
26,1.019929903,-1.930623557,0.330690435,0.13317517
25,-1.155804198,-0.857533306,-0.282126036,-0.486600121
26,-1.342762688,-1.684127515,-0.634363534,-0.657448649
26,1.196538108,0.436014465,0.44481501,-1.30210182
27,0.228630378,-1.167112124,1.693711568,-0.95002393
25,-1.459605543,0.636361301,1.829424921,0.273156628
25,-0.932006327,1.565130311,0.663374159,-1.223753209
25,1.895908333,0.481483498,1.32449864,1.961826024
26,2.774376097,0.002996442,1.382752403,1.245937186
25,0.36230207,1.887280366,0.779300059,-0.024748725
26,-0.209155038,-0.450708136,0.243832936,2.087064175
26,-1.790298137,-1.689179352,-2.788797364,-0.172109739
27,-0.758167891,1.314507204,-1.47025029,-1.345984843
25,0.792072698,-0.869724461,-0.774527978,0.544529242
25,-0.99401601,0.944736755,-0.233070665,0.165639512
25,-1.14290592,0.154524244,-0.259535503,-1.091722044
26,0.140179293,-0.375587377,-2.149713838,-0.388556661
25,-0.629994031,0.661886283,-1.921987012,1.806710237
26,0.751352628,0.816263788,0.179761084,0.449239135
26,0.071622809,-0.128567521,0.913929151,0.710523574
27,0.111522132,-1.466729094,-0.75392182,-0.055325433
25,-0.483928215,-1.514498905,-1.164162273,-0.634136071
25,0.553231792,2.104996602,0.471063122,-0.383911339
25,-0.603170579,-2.527996285,0.556063792,-0.163882782
26,-1.393508122,1.129787169,-1.420598447,1.193050274
25,1.006364295,-0.236580522,0.427768287,1.059448218
26,0.212898446,-0.420297403,-1.18412085,1.628458016
26,0.40838362,1.569923471,2.154553248,-0.537103452
27,-0.290311592,0.176040058,-0.090580448,0.031659532
25,0.707526257,-0.717997068,0.557284798,-0.101856795
25,-0.052693751,0.345207231,-0.345400455,2.384461113
25,0.896984857,-1.084325605,1.242235154,0.501750206
26,0.38524439,0.396698171,0.863965438,0.654218386
25,-1.840381918,-0.346897573,0.136677311,0.660958467
26,0.182709322,-0.128666623,-0.687492529,-2.080220403
26,1.989838972,0.707076473,0.879677354,-0.343666103
27,0.49718513,-0.1748459,1.011220956,0.352484431
25,0.280032155,0.831156906,0.235559256,-3.042767836
25,-1.292195459,-0.688217397,-0.329462743,0.346165055
25,1.578480001,0.807091222,-0.823310951,0.819838854
26,0.031497377,-1.419932153,0.447166399,0.687404484
25,-0.0997537,0.158116754,0.123556224,2.190346654
26,0.089797298,0.022496282,1.202530603,-0.787497123
26,0.381153243,-0.223211733,0.371467726,-0.33626986
27,0.914745699,-0.757659587,0.341506397,0.767020799
25,-0.112592775,0.566932441,0.522361479,0.655964069
25,-2.157232202,1.702893016,-1.175720941,0.957083463
25,0.839542579,1.936048631,0.288152734,-0.839201727
26,-0.540173538,0.941494272,0.80259604,-0.262778599
25,1.201462669,0.885493921,-1.315832293,0.318906958
26,0.102419578,0.730843064,0.058528796,0.411384367
26,-0.782775981,0.578135627,-0.235952345,1.071172984
27,0.536978218,1.578012311,-1.367176123,-1.185050428
25,0.012540185,1.657685301,-1.943003266,0.020629046
25,0.295551884,-0.959405505,0.544345057,-0.541685234
25,-1.515119402,0.111031488,-0.333208001,-0.519328294
26,1.439734019,-0.595191184,-0.663504956,3.365371518
25,-0.967838027,-0.098146516,0.17830659,1.357141226
26,0.941341351,-1.687777071,-1.203786057,-0.294757351
26,1.261655107,0.442538316,-2.232923874,1.545763495
27,-1.017553003,-0.403625572,0.392747562,-0.251559262
25,-0.134130366,0.793791819,0.608395501,-0.230216324
25,0.845428192,-0.727604937,-1.181838203,-0.21231852
25,-1.192708197,-0.467066188,0.085773392,1.095255203
26,0.448499318,1.384266215,0.379649101,-1.147306237
25,-0.369163203,-2.133707126,0.395068437,0.685199506
26,1.378769776,0.009902677,0.097012504,-0.497558959
26,0.554022781,0.345785065,-1.490801507,0.695044739
27,-1.47871802,0.56944703,-0.328404193,-1.428096506
25,-0.019874988,-2.270778917,1.193181004,-0.813395591
25,-0.771680543,-0.068973235,-1.262631806,-0.836231044
25,-0.229224978,1.029546419,-0.592376262,-0.594950271
26,0.751013528,-1.047523248,-0.649702084,0.327860493
25,0.824205172,-1.166066902,-0.777572966,0.853633825
26,0.680090367,-1.982637078,0.950823503,-0.709180029
26,-0.862271894,-0.598235469,0.28952653,-0.242688556
27,-1.149896324,-1.158392162,0.53532398,-0.303547193
25,1.490525907,0.87056741,0.077222032,1.247578429
25,-0.131331214,-0.434650584,1.193383547,0.703659646
25,0.094677827,0.000897665,-1.353882708,-0.165031219
26,0.380320182,-0.576681932,-0.08591288,0.743478598
25,0.507306457,-0.053185921,0.31708948,0.061469602
26,1.843000679,1.374596429,-0.563054063,0.037230538
26,-0.336579172,1.429164604,-2.065144747,2.070094296
27,0.413795497,-0.485764986,-0.957904034,-0.095828655
25,0.800675944,0.667017704,0.997865645,-1.196844851
25,-0.632242301,0.107571812,0.374147139,0.42139296
25,-0.128517816,-0.057692067,-0.718846819,-0.884812462
25,1.08220073,-0.450755008,-0.089522164,-0.051769227
26,-1.713392263,-0.853020118,1.312697219,0.158312727
25,-0.875297212,-2.330842315,0.126783341,0.426934779
26,2.090368333,0.539200411,0.166563136,-0.448250288
26,-0.611629959,-0.145295079,-0.010970585,0.622239609
27,1.947558572,-0.611390436,-0.175703379,0.840948215
25,1.844950622,-0.090080658,-0.780525473,-2.151396138
25,1.336559813,-1.019957502,0.620701453,-1.12896804
25,-2.406574593,-0.520552629,-0.488969442,-0.991146773
26,1.020552216,0.875640971,-0.575981219,-0.20134004
25,0.271248548,-0.413284307,1.689584435,0.209550368
26,-0.818023977,-1.496595306,1.252650477,-0.069004519
26,0.401966655,-0.246115954,1.007090518,0.392340021
27,-0.406696413,0.988259034,1.237975621,-0.282607351
25,-0.140764871,-1.082748558,0.376543258,0.335780338
25,-1.150990792,-0.26671469,0.49511619,-0.92981939
25,0.741588748,-0.01961971,0.088106235,-1.174106958
26,0.988173006,-0.18866474,0.433257624,-0.519084755
25,-0.916358806,0.62515782,1.03316314,-0.067123364
26,0.589164053,2.120021466,-0.463734916,0.868761784
26,-1.212449886,-1.114355386,-0.158785153,-0.98711716
27,-0.103026764,0.333651043,0.803901435,1.141494647
25,1.667379411,-1.838816797,2.252296748,0.772304989
25,-2.002313905,-1.686413259,0.783029069,0.046008099
25,0.573766438,-0.505273113,-0.205851009,-0.334683904
26,0.382223555,-0.123500145,0.089454716,1.04881524
25,2.049754458,-0.276462368,0.625241064,1.205522356
26,1.740564074,-0.229118476,0.039829803,-0.033757065
26,0.306450043,-1.45170777,0.717598464,0.040501
27,-0.568684224,1.547868924,-0.016410081,-0.874623002
25,0.643761067,0.86047858,0.139193703,0.204485194
25,0.116832564,0.372828205,-1.341172509,1.681422577
25,0.031098361,0.565932712,-0.144535529,-0.019817343
26,1.149872372,-0.857430045,0.023820698,-0.416192973
25,-1.209241678,-0.511887401,0.713522527,0.43688894
26,-0.608851713,-0.801389435,0.949504488,-0.681958334
26,0.286785134,-0.938890354,-1.901098553,0.592503182
27,1.772473697,1.541128305,0.566711506,0.219035121
25,-0.359065581,1.632735943,-0.262498403,0.768878824
25,0.719838233,-1.45154952,-0.044779291,0.705474571
25,0.671613648,0.42600355,-0.058819445,0.044606061
26,-0.945685365,0.682801764,1.307006816,-0.008072011
25,-0.597703632,0.33511283,0.30494899,0.75418716
26,-0.34644924,-1.20988267,-0.297202956,0.765629311
26,1.299299348,-2.214333335,-0.135850665,-1.429790184
27,-0.209753455,0.913623654,-0.723697792,-0.091797494
25,0.846378429,0.061932359,0.836898406,0.311371321
25,-1.752456367,0.765206739,-1.469654597,0.21911665
25,-0.481328322,0.944142973,1.527841243,-0.054842112
26,0.092767892,-0.066931458,-0.677556139,-0.189363663
25,-0.546867721,0.344304633,-1.029592604,-1.40279747
26,-0.982821509,0.258892488,-1.328564848,1.789274935
26,-0.029594214,-0.946651352,-0.68236196,-0.162989525
27,0.943618401,-0.56079324,0.703113792,-1.315263905
25,0.663277058,-1.100340959,-1.054796688,-0.921578685
25,0.285111397,-0.506944572,0.460044207,-0.807051872
25,-0.620060975,0.197928657,0.645064617,0.123870831
26,-0.170830769,-0.015782567,-0.378149198,-1.062212962
25,0.007065151,0.988158742,1.124062951,1.454237436
26,2.032704003,-0.279206757,0.35933549,0.441044881
26,-0.946685688,-2.298147195,-2.320721674,0.636022429
27,0.231605604,0.335952341,-0.189283038,-0.488251123
25,0.79296455,0.278352054,0.161771189,0.838317657
25,0.067147582,-0.328061456,1.144092109,-0.545779724
25,0.498571907,1.251162897,1.139919821,2.209788151
26,-0.69194816,0.095547936,-1.762347949,1.939212108
25,-1.283876981,0.371280036,-1.159232802,0.063166385
26,1.553393482,0.158729024,1.03590638,-1.507470379
26,0.637028904,0.743651276,0.515805541,1.253631693
27,0.164501019,-0.753811183,0.966601289,-1.203568069
25,1.300305117,-1.186437951,-0.019485058,1.267694548
25,0.734612723,-0.276770041,-0.892200597,-0.810128355
25,-0.932149044,2.094646962,-0.159504271,-0.542734049
26,-0.186662918,1.058058979,-1.202388284,1.553052031
25,-1.372063025,-0.898349647,0.4727125,-1.240099168
26,-0.885726754,0.251796498,-0.124772743,0.806058486
26,-1.250572613,0.519772703,0.450525203,-0.169472204
27,-0.39597706,0.976019235,0.858922039,-0.635237802
25,0.123740769,-0.296334496,-2.172535525,-0.089550935
25,2.176078227,-0.625120484,-0.7491482,-0.33032768
25,0.042484514,0.567810881,-0.870035764,-1.350997893
26,-0.773243667,1.02277771,-1.646625585,-0.836241483
25,1.634823776,1.102427668,-0.919746509,-1.124418603
26,-2.278874278,1.493614376,-0.66581205,-0.539422124
26,0.023430408,1.584421657,1.047480708,-0.461523125
27,1.582550828,-0.314005822,0.232535892,0.556042491
25,1.205067746,-2.102501226,-0.706374324,0.448029455
25,-1.544780145,0.466727892,1.364512999,0.588322581
25,1.742511671,1.682894298,-0.562672048,0.959962618
26,0.247041379,1.193268015,-0.385108213,0.409045511
25,-0.519779881,0.211146647,-0.246862998,-0.104423811
26,-0.461020446,-1.28566479,-1.260218726,-0.063794157
26,0.376239517,-0.627297261,-1.160441593,-1.152721113
27,-2.271403117,-0.373074322,-0.730294806,0.231451352
25,0.205730315,1.096794744,0.523042099,-0.191658866
25,0.032195015,-0.334949722,-0.352201061,0.729185294
25,0.245798104,0.313939806,1.096886287,0.12269493
26,1.487527738,0.127157866,-0.642107749,0.905256885
25,1.311530492,-2.798759477,0.016489569,-0.503477551
26,0.545602642,0.174146258,-1.016363694,-0.158039202
26,0.508360894,-0.494199191,1.204629948,0.123329268
27,-1.006103778,-0.337226204,-0.069491027,-1.36202394
25,1.613697455,-1.070909604,-0.201883997,-0.000389849
25,1.15290318,0.90186419,-1.198411938,0.502476354
25,0.185760784,-0.154263516,1.845678303,1.401298646
26,-0.262269234,0.667239014,0.17147358,-0.139510192
25,0.154095578,1.231997753,0.194668714,0.301377529
26,-0.723768246,0.793317872,2.28462606,-0.447639329
26,0.603837045,0.617553326,0.130331359,-1.565394073
27,0.940067558,-0.55851127,-0.914517214,2.598326942
25,-1.298993889,0.197871238,-0.748754162,-0.053982154
25,1.729588052,0.30539919,-0.101495807,-2.093923235
25,-1.240996046,0.388963964,1.393599362,1.195794339
26,-0.001706795,1.336076522,0.572479276,1.456454244
25,1.468407389,0.221193748,-1.427778375,0.756605957
26,-0.332042278,0.077432573,0.546566427,-0.404671819
26,-0.517693991,0.024963287,0.485247861,1.138063512
27,-0.430242493,-0.515886489,0.206142096,0.277961693
25,-0.993484729,0.596223984,-0.648485649,0.266288917
25,0.693098243,0.813108247,-1.033485753,-0.155620613
25,-1.484660449,-1.5584478,-1.254267536,1.415901672
26,-0.594181245,0.863611204,-0.536113621,0.031132989
25,0.292865135,0.133014417,-0.528005212,-0.815878885
26,-0.648948677,-1.228752817,1.003053775,-0.130647052
26,-3.020061169,2.063309135,0.310736665,-0.333566314
27,-1.364725822,-0.853312348,0.019613848,1.424148771
25,0.339777578,-0.680138498,-0.08040795,-0.064196137
25,-1.224616887,1.957245953,-0.734280334,-0.739546251
25,-0.325092996,-0.49431949,-1.652342567,1.405257369
25,-1.09446184,-1.770010195,0.20834527,-1.181718032
26,-0.954809824,-0.975591593,-1.422507016,-0.071145103
25,-0.567349534,-0.047640495,0.308855327,0.443421482
26,0.277610904,0.49115022,-0.498021814,-0.756743118
26,-0.673625532,0.073813432,-0.257395528,1.659055777
27,-2.20125986,-1.219177392,-1.284876323,-0.226112618
25,0.292607615,-0.945629786,-0.158846229,-2.2208074
25,-1.074188777,0.692460894,0.7286148,0.375502347
25,0.893646653,1.603435451,0.254991697,-0.528965919
26,0.911385622,0.079597019,-1.032509153,-0.126701024
25,-0.396663749,-1.944095087,0.23341901,0.077901998
26,1.291081002,1.097586205,-0.145650645,-0.064275153
26,-0.091137631,-0.569394536,0.313073698,0.746215959
27,-0.293374762,0.562663494,2.287723454,-0.340152498
25,1.359983772,-0.840856918,-2.191752075,-1.224839852
25,-1.98112273,-1.08881522,0.618230909,0.589890369
25,0.205449065,1.284761527,-0.306653983,-2.063072518
26,-0.305046701,-1.3366894,-1.30542624,-1.519195865
25,0.481821643,-0.133818922,-1.312210788,-0.993658305
26,0.416056607,-0.410353277,-0.762318545,-0.286915797
26,0.701979556,-0.835789652,-1.844269027,0.994765987
27,-1.238293601,0.628164577,-0.993934342,0.146947895
25,1.188219716,-0.761422172,0.231371234,0.966798028
25,-0.349297234,-1.692570913,0.273947312,1.116467301
25,-0.687518824,0.617549657,0.190772318,-1.377519102
26,-1.295985242,0.106368575,0.0911484,-0.451207186
25,0.338989859,-0.811011102,-0.235572602,0.086713463
26,-0.101918579,0.222240679,-0.056172848,-0.527156305
26,-0.462145384,1.409714812,-1.160247824,0.134428895
27,1.414809914,-0.824656024,-1.475844959,-0.648173019
25,0.043997567,-1.081096213,0.816169647,0.562538152
25,-2.634022807,0.435388163,1.566622604,0.900767293
25,0.279197677,-0.137828521,0.637059689,1.296131989
26,0.088262921,1.430873598,0.506141735,0.163238591
25,-1.808499615,-0.437641641,0.985004682,-0.955481826
26,-1.200731613,-0.340935895,0.421034746,0.642827154
26,0.539020419,0.367052744,-0.30982558,-0.464388085
27,-0.395061511,0.906971863,-0.284769606,-1.12769394
25,1.362731656,1.169427141,0.650417465,-0.770434292
25,-0.862745305,0.950908726,0.15052753,0.909477249
25,1.335556618,1.53621029,-0.879238057,-0.065752562
26,-0.104989042,0.275352108,-0.289902466,-0.285952514
25,0.254367,-0.471194938,-0.391834508,-0.114962668
26,0.3454959,-0.32563897,-0.470146028,0.400310954
26,2.737599609,-0.026173306,-0.158800794,0.225284173
27,-0.181987232,1.867657421,1.804482544,0.695041824
25,0.26545349,-0.467360567,0.300227875,-1.809030006
25,2.104117673,1.654327277,1.400519798,-0.296488806
25,0.651209414,-0.203230007,0.429632282,0.124113967
26,-0.803446687,-0.524023764,-0.497431263,-1.592085506
25,0.295209384,0.66882618,-0.256765793,-1.422853109
1.55731535486215,-1.70596723404581,-1.00427831361453,0.42533354212255,-0.395046252837899
-0.65102056431208,1.20493835904226,1.24028180967864,1.37534150309585,-0.17212683616793
-1.94488377908836,-0.650745458088156,-0.479173657258038,1.28383250445651,-1.20057418644098
0.692077846623854,1.11633784515471,0.074313213469035,1.06673852233564,-1.15809022478001
-1.06559537812799,-0.280266385106683,0.369787096622365,0.676449904791288,1.01419504844662
-0.035241707346744,0.654231745124799,-0.76372460764274,1.44740552587931,-1.65475319520044
-1.02267569814783,-0.339478172989605,1.56241322946154,2.43336004599495,0.864481533406398
1.27202222652619,-0.219690565835832,-0.531371408307348,-1.13107618007039,0.11774649580648
-2.82421577918259,-0.668256100108602,0.908055986859854,-0.765655018160665,0.859987612418456
-1.36218698905826,-1.00536190987228,0.00678042895712618,-0.207441669836539,0.754106470095646
0.630413503940548,1.19952042035201,-0.0727611222643993,0.367130353698358,0.89110496451091
-0.912351370030972,-1.278337529461,-0.403473688185886,-0.483051909559406,-0.75044500749635
-0.191045388600413,1.35018567605722,3.03980630301484,-1.00738482398978,0.56225551304642
0.214895153713755,-0.342327781904485,-1.39331501511823,2.10415978361349,-0.127502045112005
-0.617401594897128,-2.38451143147536,0.212897467347869,0.652255218514668,-1.44067206114498
0.339446362053041,0.220200246735905,1.40517358820514,0.124616182576848,1.53058029796489
-1.04552766313962,0.574982201980158,1.22305639390511,1.57559114396193,-1.27611325654504
0.194627912694607,-0.504243479742412,-0.0633024828128316,-0.819560049386101,-0.335649411296956
1.98963845995089,-1.24329290423268,-0.504231526270374,-1.76958776281707,1.83054809699483
2.11677367985658,-1.13778411261042,1.23077135092796,0.0870558146124683,-0.600434724007644
-0.0266008935134095,-0.0722005678582867,-0.885006996503287,0.202149375302076,0.909426755200288
1.21258430824231,-1.80210519555722,-0.13342445835052,-0.681897571587146,-0.279391099690108
-0.0677973784745844,-0.344326406456324,-0.241649668274634,0.465499420141765,-0.876158290715693
-0.551204424358749,0.58297723079193,-1.57480988916516,0.611902882028898,0.971276727562999
-0.364956850002789,-0.470385877411793,-0.944168865719183,-0.587245213425668,-1.71328655858011
0.558850412922932,-0.140452641820083,-0.520370843072783,-0.836477393315543,-0.380154467744693
-0.498984363996766,1.02449801501923,-1.57455249565355,1.92596920957403,0.98945754678486
-0.929580975351361,0.592841157341681,-1.78501474798105,0.773595778207775,1.02865353192477
2.56106964701112,0.99000438960421,-1.08467033967161,-0.344208269674658,-1.77619254150286
0.225592390760622,0.342799899233999,0.953909994318805,-0.226104149998748,-1.18376265108024
-1.32221100625476,0.71494151166843,-0.172055245614379,1.54530415424692,0.0423743128368047
1.24876229148247,-0.417254232539146,1.11819298186473,-0.0916814438924895,-1.54018699657665
0.265269607138509,0.810411690657496,-1.08773963897719,-0.196987176303744,-0.226425408817852
1.60420468595537,-0.555354491883113,-1.0120597260602,-0.841286549928531,-0.817570671132597
-0.269841685394758,0.177799381150064,-0.0274928112636172,-0.147198990262153,1.41631763672303
-0.748391873777261,-0.220421419284976,-0.499141663910127,1.92247517146182,1.50071710698508
-0.362119163931269,-0.716914128843142,1.08054651419274,-0.013886973063527,0.378546825419273
-0.257645849228745,0.544780534724695,-0.613432959568882,2.46356054635203,0.296757781556544
0.630989775756984,-0.364353029359295,-0.397039100812924,2.08831992532899,0.604758083610447
-0.065411535444726,0.363758288539063,-0.521408410770888,1.72220519532396,0.19566046192717
-0.421801299289336,0.0353613261175121,-0.92799636949535,-0.182867657907956,2.2940415893645
-0.778570048952039,-1.49744012020123,0.123092663355755,-0.359882443125953,0.673867390207238
-0.717501326642393,-0.021385398148784,0.566021400836807,-0.0644444502079813,-0.488931224287758
0.0946369167007486,1.72185560016454,-0.386834870904094,0.962072203083672,1.70894736540424
1.61434508605659,-0.314451973670927,-0.0179157507291892,1.81235233159958,-0.428360977530645
-0.333276464958031,-0.896747966644003,0.0190683972250996,1.63831571081712,-0.176518652192302
0.309070444995423,1.72251037223762,-0.504713792963081,0.900260263972713,0.00206922765378941
-3.06651349903182,-0.685190958392106,0.927586070322369,-0.352715198309799,-0.0813999072520045
1.36395177565056,0.310003691881686,0.162029810533042,-0.131276941170813,0.638018546996694
-0.884415674759,1.23243309774923,-0.0645371558545935,0.370103523823474,1.05920759520069
-0.245815631001644,-0.826015438756707,-0.919655456073787,-0.955235603376431,-0.609381032741085
0.54553772759824,1.31575699830995,0.475804010165889,0.7817251989905,-0.669306556006744
2.16900230824739,-0.491436104317067,1.19192477444539,0.68919322887704,-1.12612916149347
-0.244021218008261,-0.255292410174693,0.160594618641332,-0.461368580774668,-0.369624614794627
0.957742324098043,0.450667396208743,-0.324828697321752,-0.575824544357252,-0.041422954534888
-1.61052176831761,-1.03638810611707,0.0637623336906409,-1.92424815581307,-1.31355546117396
0.037489613762545,0.288968614836422,0.334856944774397,-0.613947393752489,-0.285502995884712
0.131708622306349,-0.381587265383619,0.529334358101847,-0.169911869405215,-1.19880365705302
0.859601924470526,1.97473106449598,-0.384778139145644,0.707750224132534,-0.936153077606028
0.414129573779023,-1.04085220571732,-0.616913823424204,0.0113830412203424,-0.792724451092718
1.27695044769163,-0.600261680899623,2.42430623168159,-1.23038870465591,0.569758572403639
0.715976608057956,-0.592866100450269,-0.186752726461748,1.32195247457637,-1.19545944347488
1.06016658353889,-0.1417745929774,0.0804187233393356,-1.10585969942879,0.503047252671779
-0.768416701440334,-0.60834623851676,-0.599397472415508,-1.07294850468677,0.855395179542827
0.190325861400823,-0.425338183750427,-0.740634545903765,-0.187855686200813,-2.68204793816214
1.00688016425282,-1.47720461623053,1.12678631009018,0.61060512067404,0.701241462089529
0.264803744504579,1.62733120803283,0.114000872695566,0.969938476006674,-1.81982857846591
2.07527344369538,1.00107818172781,-0.879777277648202,0.278500726910479,0.401056589262641
0.374297544740507,0.740000219236508,0.160114523564446,0.50814572711907,1.28178362772347
0.134659722217777,0.259808999063056,-0.362539038890292,-0.168660985763485,0.2377039751985
-0.625768229366025,-1.79370508790274,-0.535196342336183,-1.25985090358409,1.51474616785112
0.748147069590927,-0.0871308017819982,0.814220028258854,0.935107622163302,-1.24113653187136
1.38434768744662,-0.999194920514487,-1.25288126570719,-0.653549972752586,-0.609503825160361
1.12583539085733,0.0343785349725762,-0.330362971101769,1.54441194626625,1.18605952555158
1.00301779135319,1.90070861592826,1.19885773559759,-0.192586819905693,-0.0860671508431476
-0.675785583266266,0.557597486220852,0.385559002630395,1.21626532568106,0.776684378582849
1.26069338588229,-0.334651977807425,0.45138902578792,1.60764649267196,1.28223066238717
0.573944683241289,-0.434282185898235,0.699508907677512,1.64210445450783,0.669602709956301
-0.421517927371267,-0.0775126156457334,1.07506088480835,-0.633337205050528,1.07475690546292
-0.841263675760463,-0.570513627346557,0.118288455235723,0.492606196758451,-0.610172730821994
-0.063226454622616,1.14449513408144,0.0204155253792456,0.0120330789027953,-0.142254048909152
-0.33800355709153,-0.887410288557562,0.808972357621477,1.70990202011429,-1.00993341350209
-0.945215155621124,0.629195948494318,0.283199473624096,-0.488028925296949,0.671365231318957
0.158446120693928,0.955527348550792,0.888755830630567,0.776509230441438,1.67691989566827
-0.0334195489854737,-0.151231927403421,0.900283889320248,0.743031446646186,1.09494193790114
-0.281887273016874,0.655706344087987,-0.0469931871471114,0.356870862165044,1.92296479350845
0.415207671185069,-1.65892386204516,1.23489603583571,-0.213395889627296,1.02124489636329
-1.3630466327341,-1.14828693959887,-0.723796565066866,0.0490319339690408,-0.41944523713098
0.400410054822679,0.737685810021539,-0.63326103222136,0.630243636911303,0.0348593706066045
0.776670261883992,-0.296536821265585,-1.23093929714645,-1.09907959104192,0.258954146231865
2.10544864801069,-0.907164101540917,1.47582724725761,-0.115086686644182,-0.384721387044138
-0.88001268166256,-0.285681359015848,-0.687847455742632,-0.211536651665261,0.138265754837931
-0.20415274535302,0.693181701604014,0.00915051929784641,2.68543880229741,0.207583636430414
1.61981675326971,0.386928979246345,0.270822445116825,0.125846753282508,-1.65907472090479
0.0462384614862,-0.125873772268048,-0.590563076893972,-1.24888008603434,0.668374126087986
-1.26543496331121,0.799157731851617,-0.81731642025785,2.29554539268835,-0.621994889305261
0.313016307247075,0.487067675956977,1.2283492154549,-1.30473573322459,-0.263209769503162
-0.629527804774671,0.5641889139671,-0.0564322752708014,-1.96276235161045,-0.684634429413148
1.85991393584795,1.71252789903374,1.16671678822629,0.441449784936096,-0.456981622736595
-1.14256474218183,0.398305090362168,-1.16501772473343,0.486762232671527,0.230131493769286
-0.77293638781795,0.3701802961035,0.799092516683868,1.04821678247488,0.734390275225605
-0.540316427902272,-1.49097141585891,0.543065060442219,0.983449408918329,0.535196750306849
-0.224293819446972,-0.359102210492405,-0.205375847013666,0.345671139319194,-1.14172000369278
1.18856294213755,1.07928510416407,-0.65808026308921,-0.170925639283746,1.65811093610087
-2.16416682550935,0.15682991728611,0.775172098659316,-0.0600780713295764,-1.16094494929424
0.335421240611369,0.439619506564395,0.102227289172364,0.0454032141575161,1.06383711397017
1.20832958983508,0.950060770498301,0.0165139520383989,-1.43146764439075,-0.0803932018447626
1.36574918880108,-0.511509768882258,-0.755767378630205,-1.15490840238592,-1.12392645970542
-0.934787352219092,0.618993276105428,-0.451494457495206,-0.943053200978908,0.488733941674917
0.694696422955697,0.903203626244264,1.26303342782982,-0.0382117869650449,-0.915576388128364
0.299357590418553,-0.78842195729708,-0.120657633913969,0.281267378538397,0.783326346419049
0.805065372591656,0.727109705593446,0.497079387089455,0.466467382590482,0.0985162677538825
0.578759829141322,1.92401991025547,-3.03483007953891,0.801751547459119,0.02605401521486
0.95920817308089,0.837315241344285,2.09143764523942,0.864979889349459,0.408837846493519
1.08353024179087,-1.16827965863705,0.206616057210873,-0.130288940621818,0.725918168217389
0.537795368930824,-1.12757862328906,-0.0786878602108733,0.5732053551015,0.154984846338119
-0.554522990977413,-0.905490224396628,1.12565490667803,0.846280427642657,-0.199967429468154
-0.84678042162757,0.883002731100435,-0.776142704514025,-0.446412136222124,1.65788758261103
0.911359232226208,-0.143209242488774,-0.256291168015613,0.172238080062526,-0.0670716327515345
0.70243079631118,0.28682901855359,0.87932649565853,-1.0055768974439,-1.38141931429102
-0.0543700213018761,-0.933690428479296,-0.288911383100782,-0.318388673279492,0.239394328902625
0.285664469777397,-1.30589457211136,-0.743980765775874,0.997719992844817,-0.682217301050018
0.573711846916925,0.638730906540657,-0.0139873935076604,0.0651269960835176,0.546402712927021
-0.871614712538993,-0.589320233253035,-0.0592192189917354,-0.355730069285926,1.24701507141315
-0.117297790080238,1.06611859312754,-1.34926963538285,-0.540638674316572,0.290204765247761
-0.000928601751354748,-0.49800757291748,-0.524936162784675,0.446055273256987,0.747307016104988
0.0595345352126611,0.185331543225196,-2.31547285006514,-0.0179124360567671,-1.58471144566147
1.01527269054634,-0.606531333050298,-0.745766448212357,-0.860221700230324,-0.0828091063757294
-1.42507242712827,0.85851426948847,-1.51476725220197,0.571955109532141,-0.261904861171044
0.629564221888556,0.00416313014874544,0.946191503029794,0.0561300845018214,1.24180100207672
1.9450578129891,1.20397914831406,-0.19944705628405,0.565416083788751,0.151546931496981
0.923368705186842,-0.401220747628002,-1.52670726741519,1.95490973255831,0.0471781804608948
1.42447629720653,-0.840671032110214,0.384237581892988,-0.595699676194879,0.124956354396487
-1.55215568221765,0.312838850879828,0.569977383794493,0.0603444346678175,1.38337567860939
-0.0930031769635341,1.64465916076053,0.799791000753794,0.907204400317749,-1.07617772743821
-0.0333458315511635,0.459468437350821,-0.431302399959314,0.218930277761649,-0.365335422729373
0.384105877844247,1.17994546192568,0.287375207737906,-0.95126365094201,-1.29721316510753
-1.86298231632599,-1.37836713608439,1.37742703024486,-0.417460154463059,-0.713184873029853
0.515327319620492,0.220803185748752,0.610223493304292,2.27409690709939,-1.27337899687948
-2.27191045508491,-0.741342128551453,-0.517753046857498,-0.882778930322061,-0.269125773246993
0.621231225610863,0.406766782672538,-0.737403280367042,-0.709131853391855,-0.729743905439631
-0.357633938104831,1.92280861894961,1.4138832372044,-1.07376291106885,-0.164642803004635
-0.762077254054883,-0.761570899697082,1.44970268982545,0.294767931621431,1.48142504784245
0.65547439766581,-1.24211707066402,0.342903098890377,-0.677234204879239,0.55159063944023
-0.431712491366266,1.29264299070927,2.09829746453314,0.119125845539576,1.05635281841588
-0.33692617381928,-1.20814799420259,1.47625554038731,1.7008519336711,-0.845901498847559
-1.43200644294215,-0.253333848337262,1.3269446888072,-0.859649406120985,0.0632380344618757
0.224538064607656,-0.552321887573841,-0.676805845088975,-0.396532192027176,0.379730870934496
-0.225267899632738,0.611614969343739,0.986393762622169,0.561932689335954,0.179928694622017
0.247556577634225,-0.355129720230155,0.742522474582577,1.91643406503836,-0.455816079811123
-0.223170047485919,-2.82864026910863,-2.32489396001492,-1.08717593972781,-0.639038954731619
-1.25928892722879,0.262076717833873,0.513443687360657,-1.05681764633786,-1.12007855287281
-1.23342497328491,-1.16173445100423,1.0339712963265,1.00270264835035,-1.40218436413774
-0.163065332837537,0.0812575829285751,-1.21933183669655,-0.748810934259527,-0.171881718864972
-0.471085307015095,-0.990562806853127,0.18042069686784,0.34553663517594,0.590639923538457
0.44278429764528,-0.230118538894353,-0.56688890336085,-0.899187658057648,0.68829762914475
1.03107114606598,0.863390993322957,-0.551599704509594,0.390265610075161,0.125569909840855
-0.0140333368250127,0.122530494103075,0.920655746691286,1.47919760319765,-0.17094561493743
0.986378524634332,-0.390521081323423,-1.65914530719013,0.525197430310626,0.656437077119122
-0.439810635572198,0.134857323862528,-1.21345661475071,0.0761163717114201,-1.38015863585508
0.647404878178,-0.0350003676021562,-0.227605757632311,0.862085285812243,-0.574226421995092
-0.772336089904723,0.567491598751103,-0.405315952174465,0.462480299446643,-0.192086918981286
-0.316555655516128,-0.862395744087965,-0.16561442582201,0.891943158767259,0.0595692176553791
0.0690485796715027,-0.977902741947834,-1.06310141648603,-0.741285206836585,-0.478836525189686
-0.395662837698185,0.457429464205418,0.969907201890803,-1.2956013723704,-0.394477090620149
-1.16118728544641,-0.500099533738039,-0.283397102938138,0.383156246833465,0.148916737886902
0.72754009723062,-0.144894957205603,0.371341175064418,-0.202368847751694,0.9749430246873
0.254860492202812,1.26937337044157,0.88769709924051,-0.228407440597778,0.322842477662627
-1.10913261674035,-0.411084921612118,-2.4628122117247,1.08794016105339,0.996160830860142
0.836808762308584,-1.05335429914087,-1.12837394400045,0.524677429796963,0.207830503785884
0.0683888618075403,0.421126199310638,-0.0469352433251689,-1.9381443574329,0.0917499904783968
-1.45966462189499,-0.46725977531805,0.241444563505226,-0.536798042307589,0.114664373257192
0.101150269252741,1.40114936741784,0.860624935802504,-0.761960500851812,1.46778751394619
-0.573527494730479,0.1922011605344,-0.410776025999028,1.14391454035536,-0.993374458617534
1.06266865163219,-1.40460310958539,1.20083283189692,1.56030928282404,0.476262854972662
-0.467290080526809,1.85548391011742,-0.156940723410163,1.09106193174732,-0.340467520904077
0.5042993846584,1.09488468884077,-0.0990030621245841,-0.829358067284365,-1.31634440644436
-0.163198783697506,0.680082882868394,0.0707664788603654,1.60092442371873,-0.738631887300089
-0.0895155196544496,1.92697539791888,-1.09479871811543,-0.359097298097991,0.445902985333365
-0.610238267401683,-1.7157632148698,1.48444501218889,0.385242001922693,-0.725115394246156
0.385556265709464,-0.482443226958071,-0.942311618870475,-1.38212274277892,-0.159638563175651
0.380160273435912,-1.0151536725877,-1.56942271203485,1.10224420320559,0.12436374899001
0.175660674412742,-0.796117818090333,-0.994974486106963,0.88087529895784,1.08875531263055
0.270107930862207,-0.947036611683163,0.612851290319644,-0.113344109007598,-1.00351472797054
-0.758590401274104,-0.786510787321557,1.60831287426654,-0.731135565597027,-2.11040766773308
0.651623570557958,-0.25222599030311,-1.01853344651015,-0.745466781474159,-0.990868036575242
0.548451990456557,-0.0262954626073443,-1.21520251321374,0.0985388105162682,2.0583453837335
1.16591268508673,0.02252225230703,0.652481238887709,0.217267646549315,0.179671407222569
0.630008573215961,-0.674236786106783,0.0181739636485784,0.899541971808299,-0.388594979939786
-0.800508763260995,0.423559241657221,1.25333530653061,-0.146115872891915,0.0581917932869913
-0.950106206041572,-0.634046674042751,-1.19744866725431,2.03740372655155,0.165081687503646
0.528673474421382,0.180487498713102,-1.50179698975638,0.434967409379373,1.44076883924485
-1.72260865223594,1.01352446846271,1.16754322772479,0.520775726358349,-0.00989508235868003
-1.64658096744791,0.520177449654792,-1.44265011941727,1.24766658853085,-0.316100494746498
-0.403504828257837,1.80391881133052,0.16605515356423,1.66822937860292,-1.95240376718233
-0.436934637639592,-0.334223096892644,-1.17293606093396,0.439910012416636,-0.0669021588159871
-0.127884790810149,-0.542654124608006,-0.758212186850344,0.127796576597297,0.574820452169846
1.08352751574599,-0.0510682584081385,1.89069649324506,1.74077001514831,-0.428596032684152
-0.520624665514911,0.0141758215807388,-1.33112957871602,0.430656692516866,-0.766900674523349
0.970934944106973,1.00485395768078,-0.455002254674448,1.77420526258733,-0.883181189200372
-0.574298059969597,2.02195139715762,-0.130919843654578,0.759870001104265,1.18191826039732
-0.746871692011711,-0.0509738745160896,-0.186932841876025,-0.369194912023514,-0.0836786062759349
-0.307118908856285,-0.218354804279449,-0.302060009743774,0.389848495440071,0.89341104571503
1.85250824431749,-0.545118041041088,0.0387357569220541,-0.15384404835933,-0.370133819388916
1.36366173373143,0.570564194344634,0.545287421839715,-0.496353604265729,-0.569723944140145
-0.544745827632012,0.428265842723947,0.198812209214891,0.0952346453471331,-1.09087522411044
-1.02991357739038,0.716167686729173,-1.33362466287016,0.268214090898246,-1.13385777060395
2.12115498688589,-0.194447900740498,-1.04821077801149,0.416339191107426,-0.103991482757368
0.200075256838268,1.30136616675576,0.0866273820264764,0.381972231906797,0.828365863276738
-1.26465719759617,-0.960223908675307,0.212432392893008,0.00162231937070522,-1.01805323250816
2.08944122091744,-0.821388985272595,0.921889564280736,0.349950708835195,2.15373829242366
1.27348425344382,1.06197998438876,-0.0434543253561543,2.42224267157688,1.10730220323379
-0.295311098555719,0.87057420067503,-1.43592032417051,1.99199064766982,0.247855109430261
0.284624634632903,0.105273900599896,0.941867068693307,0.665316702767004,-0.621582869956021
-0.295545398199835,0.345877004477522,0.158357534099468,0.567422562392696,-0.113655843830249
0.292532489600095,0.274127966450805,0.979926386832884,0.498568781817239,0.293327419465037
-0.151687939435994,-2.05765718943673,1.68955840139965,-0.353751377742041,-1.20545950186226
-0.903749933160144,-0.54092119544803,-1.12477922810251,0.906490266650526,0.406301752433404
1.34443466610696,-0.984823613718046,0.597980749415321,0.348885572007393,-1.03543895484114
0.983613074936909,-0.0187010115618891,-0.483591304297705,2.50220960178464,0.0181520286328242
-0.504997640546357,0.57217136804777,-1.0103229099587,0.130971192995612,0.304967048178063
-1.76592201534754,1.36011213767114,1.20729505384945,-1.10898721696131,1.16942796686401
1.15326420761674,0.260627450759127,0.319699784447758,0.924533654424819,1.10057727212308
-1.06595785752189,-0.162337806825198,1.5200342137183,0.457304414530147,2.43278619305007
-1.87284729717447,-1.86985916027268,0.665300413782971,0.69102433884177,0.432010814932599
1.77140733155705,1.58025834246817,1.12975042355558,-1.48525416240616,0.181853555249675
-1.42232634365442,1.6266403579333,0.662520994750916,1.10850849669814,-0.544997204904526
-1.99557864864708,-0.662795271604441,0.559144435648424,0.146644667094486,0.211740953820853
0.220598411243432,-0.552542287048249,0.706741760496315,1.99949981666863,-0.610500156066951
0.482683855666286,-0.907819386692291,0.286208178817713,1.3198802663675,0.08880726785537
-1.0380069353489,-0.814058947718745,0.569071002448572,0.718976761079111,-0.538302042350275
-0.750549984974446,0.504641666121687,-0.672990392723678,2.0171637208375,0.315076439864401
-2.62694859026141,-0.097739440554683,-0.400729605953289,0.621784827183843,-0.974839398557773
0.481764798042106,0.941836304108061,0.375131918854634,-0.0672619653371029,-0.62989043623262
-0.54657964677197,-0.255633462810091,-0.672243944686423,-0.947246436763,1.09243366627215
1.73919223635909,0.597455821999586,0.121264784334663,-0.0199888794048116,0.308965609814176
0.362694246151563,-0.084889344905811,0.0545201725128731,-1.26686904726746,-0.614599179566513
0.68413754665735,1.33535307346889,1.42284888409664,0.20517824238694,2.27515099473119
-0.766803516402983,-0.247795235955886,-0.290744259133779,0.572435517376806,2.15111263836691
-0.864995749635366,-0.130808133973415,2.25844489344767,1.46567999240932,-1.01432618595242
-0.0367380578701893,0.881767113845678,-1.04272989653328,-1.01158757195489,-0.294673995791887
-1.96476872382236,1.10784416832849,-0.0401853818108316,1.15383387007598,-0.374296595718543
-0.537452657844478,-0.410522393229436,0.2605160925596,0.659805290471608,-0.0831554460830773
-0.593253312844639,-0.0845031365037976,-0.66441187018857,0.0114497836473948,-0.797251614459717
-0.337234962794537,1.84709875501782,0.53096729394367,-0.0466038435252349,-1.62376024182791
-0.313912473615764,-1.25769064620409,-0.208995500723993,-1.69469294332344,-0.120387087700175
-0.988706919798735,1.23373375888445,-1.13641474028292,-1.14490950686347,-0.0850741812244396
0.649739055621709,0.972475054015953,-0.698372803137269,-0.316570680184624,-0.690741050097537
-0.238629829590452,0.65220738919034,-1.35647943710512,1.19797452539534,-1.16197187446218
-0.685421612212075,-0.641446284225073,-0.797779539289415,0.170588807827023,-2.10195846977835
1.66199954644534,-1.44683350140338,1.55342970243998,1.36356704697899,0.0429285899626123
-0.182006032851879,0.685434699652686,-0.212695611609137,0.51338284725192,-1.0440805486399
-1.55197816742662,-0.0843746857208691,-0.360924284265937,0.338965652052881,1.6131485166152
0.953384983538748,-1.507157633815,-0.580365882102736,-0.069017820823665,-0.732217473453042
-1.11035281022415,-1.23613322125438,2.39616049804591,0.371249113897415,-0.796466409756214
0.184573163429501,0.0277023166140376,0.684258600509606,-0.313626931662856,-0.157618512162986
0.786444668077871,-0.00113519830264094,0.436026736203661,-0.389276074173088,0.599269144421196
0.765491664185892,0.589862253882027,-0.150768507221921,-2.54101723454834,0.243563211894527
0.52163535532916,0.363209318914534,-0.65354048515231,-0.496731782064848,-1.76584345766574
-0.810917560847078,-2.23824259042682,-0.601033325326769,-1.1221656918401,0.408104726845064
-2.1351780047941,-0.507803184082731,0.869679768787521,-2.05808067988594,2.16273638684915
-0.494427461943566,-2.47859414659446,0.105537869545053,0.075040625437203,1.27841065253827
1.8208777289595,-0.746372907781436,1.52229321269144,-0.995058393024046,0.551304648012034
0.0487278899784898,-0.184089268895158,1.14190284215443,0.654634648334908,0.153055706121408
-1.27421914776575,-1.5988044408028,1.42844266303104,0.320176425336719,0.93704159738337
-1.81975665250746,-0.169598475387948,0.305415899936056,0.627791519401114,2.90237482727734
1.93788510608573,-0.980283300750115,-1.91158290526439,-0.814442004282417,1.07748629148214
0.431547057248528,0.726848894070384,-0.690841894365078,0.133151639927139,-1.26541311742309
0.379246709951808,0.114885727347782,-0.792294050583283,-0.892877689747795,-0.0562023323006182
-0.12052345581077,2.2235793240524,-0.350116305677084,-0.556933135476603,-1.09157639450204
0.415618075131855,0.655470907719022,0.374779365567141,-2.18165514539122,-0.7281810706971
0.109820942154651,-0.255793103107173,1.14466688324283,0.850421976820609,-0.0882154173660827
-0.169712914137869,-0.543181231357738,1.27417308561221,0.96666140411515,-1.0277713249813
1.02264141236216,-0.342420592001237,3.07496567809991,-0.212567914565906,1.1286439214177
0.0845032546408388,-0.067015602996029,-1.05934361455541,-2.05828679597356,-0.606807583703483
-0.476530235889058,-0.334741403750647,-1.70386002787251,1.09450845987765,0.350067761765735
-1.19969470546775,0.478360393357888,-0.402454832873975,-0.590110550376666,0.637166502851688
-0.400764858684297,1.42261103741842,1.32691511790763,0.374698662258563,1.35962810305914
-0.0779919800166004,1.84019186600525,1.40983778898014,-0.721361974462115,0.0267671852145949
-1.32040737022949,-0.253342222437254,0.998090404576926,1.19115964773318,1.42956851824048
0.101249286316625,1.24880528441099,-0.366339570557477,-0.780906456343438,0.217356136311756
-0.745724074324234,0.132996950778079,-0.407315561665629,-0.531165911710832,0.595964691840737
1.05227342423712,2.23101612333647,-0.597485755952478,-0.0453248498732759,0.583926327319707
0.191499346158684,-0.586254293731683,0.818733460701663,-0.0757437098488064,-1.0712004250249
-1.40044018464763,0.259052642419969,-0.140712987086845,-0.593282242953436,-1.36933694546156
0.830678847118378,0.799041968260813,0.844908941269241,0.674821044715565,-0.0504103456053486
-0.697236829740136,-1.8987609270284,0.572918724947538,1.94575412386962,-0.261623882458666
1.26225403337397,-0.719626292980859,-0.375112874433598,0.793921706774579,1.63774574875042
1.07447076635361,-1.52553688246227,1.6528442223856,-0.524465377072374,-0.0171586043988987
1.94043253853247,-0.4869944285537,0.855087451803888,0.0844155051587367,-0.578797186136795
-0.409014991099876,-0.68567121284144,-1.91467212855428,-1.46471877977434,1.40910871034324
-0.284510188658234,-0.297192695004142,-0.758258117391301,0.358126237155653,-0.980049810243286
0.743403899582894,0.664798022845342,1.17386813380053,1.19038923466361,0.872309342470447
0.055682625112473,1.24700712509418,-0.18589121152684,-0.0460694760717885,0.263192535749271
0.362984557110387,-2.26156623410782,0.470984904296987,-2.55444037552705,-0.488161326029628
0.576180986791023,0.485818043136899,-1.98325852230857,-0.00111389235065617,0.166287682126578
-0.317841999935453,1.29334523850813,2.52591072068008,0.241766977242469,0.042806588862613
-0.0746460527188383,0.586414503914694,-0.654083180877033,-0.282773679938439,-0.81054411698749
0.441787480359667,0.693554291852883,1.06855486856652,2.2447194707021,-1.29227658525647
-1.23027257498755,0.265458697089126,-0.402853074110949,-0.990764196061554,0.480966621696726
-1.54664255049367,-0.34928407704636,1.62377370210014,0.427978072298953,2.36337528174359
-1.20411930266891,0.46462107338408,1.03657031418712,-0.816698344022536,0.134529611834425
-0.329334940076582,0.43956887017953,0.224684369466642,-0.334417275483995,1.45907708317003
-2.29644467658444,0.00769983464824685,0.283076858500549,1.00262378157304,-0.809221931802314
-0.481952489553466,-0.545787273031368,0.71932633551521,-0.258102331293205,-0.794669545843293
-1.80817594780562,0.477647070555464,0.394492240628977,0.211371351667744,0.643260903219259
0.0865107406443922,0.106461477101492,1.56215781073299,-1.05333019362858,0.310179183063482
0.31304749069829,1.41799742946788,0.725770902364899,-1.3080196016461,-0.373283590937828
-0.439244587680484,0.839159789772105,0.699186510162288,-0.0754826174778409,0.174350168924341
0.380646716878613,-0.211678248359663,-1.93413580536666,-0.168753565435179,-1.89748197856617
0.870146085503415,-1.75666159265477,-2.81719099701459,-0.894883715910722,1.69438489504724
-0.460421377751464,1.51435188754203,-2.24837965177169,0.470569653978375,-0.320234702293123
-0.381015260205768,-1.9767759680818,0.440993333136099,0.546375679928207,-0.438586885748079
0.993385981715695,0.908305819976199,0.042557362103519,0.83742546727039,1.44410634039316
1.68988774642729,1.20099649637613,0.646093656370452,-1.07766226708268,0.151441215308638
1.15225119342413,0.659915709193503,-0.421499636478424,0.978233799872349,-0.234248604025117
0.295070003618821,-0.528870663784008,0.091836219514738,1.64969309680228,1.79839628643282
2.37213410127612,0.183594572442109,0.228021682074185,-1.76735877556358,1.58713389497354
-0.953566540303395,-0.268252628400924,1.05369441959977,0.506058315139078,0.15648441500331
0.0822107108383283,-0.54910742199586,1.00620096388439,-0.216933032647328,0.641966524757244
-1.65803328945038,0.656262478567779,-0.186841318112949,1.25796018353353,0.687178084407354
-1.14508326481248,0.679869619848135,0.727002808434589,0.00637164429813881,0.148632634563229
0.505525735295028,0.552110495205948,0.218565271956879,1.21094874244056,-0.763324670176666
-0.449555633452861,-0.885307181288732,-1.66233323650517,-1.27093683763115,-0.716433133905584
-0.739535738753546,0.0221794332748038,-0.533793291643359,-0.313660013112303,0.746510652920257
0.410428652452922,0.151129985303408,0.384084575862729,-1.85787212009866,-0.377032604758417
1.02248667680466,-0.764858409658246,-0.149896387272471,-0.128243010047373,1.01501860629091
-0.781391342677241,0.156725421124235,-0.327203852501851,1.37243654061652,-0.881179468973542
0.171441922731426,-0.823985342651379,0.877012085862111,1.07814018333227,-0.733174105660393
-1.32599832760167,1.64421160321428,-0.0549694498236871,-1.54695380074912,0.353860525062604
0.767082768153451,0.236953519389331,1.26953125424337,-0.14986417414035,-0.53139389157212
1.61464910391377,-0.754894534488458,0.163704428227365,0.388663302800646,-1.07027457914828
0.272346740796078,-0.15246130968552,0.758944330219446,-0.644224755472319,-0.511565044984726
0.411316986585402,-0.529709227661269,-1.69577268665299,0.180851051315858,-0.402057832569035
2.23463577743802,0.334107174823008,1.65427791273162,-0.059658999433197,-0.806461527082115
0.393782762108264,-0.438192674788868,0.633700423774979,1.9560587421333,0.356967784524488
-0.73298858551683,0.366019847617926,-1.01842051256043,-0.317797102513882,-0.696474889691201
-0.82888652916853,-0.429242479453906,0.14004940712064,-0.510357454479823,-0.295693050589283
-0.734638637020598,-1.08050471607759,0.493767869652063,-0.594977558788761,-0.63906702001386
-0.491467627149691,-0.34097940749724,-0.373454370013664,-0.260456661656319,-0.194864743858044
0.914747019124134,0.254952778783092,0.207805971655108,0.207179484838956,-0.425240322590506
0.13669515780297,-1.38205148300732,-0.547685728541714,0.370745057377937,1.12564359746234
-1.63665377933197,0.568937187787401,1.07272923184571,1.09124653225525,-0.739630297752236
-0.114055210717053,-1.66528225795115,0.727513258129319,-0.529028924410237,-0.404891809312541
-1.17734615227018,-0.552358993392825,-0.784389791569861,1.62201475231483,0.564414769537003
0.695223165278203,-0.462990073297825,2.58268981666848,0.465671848061242,0.27766979401627
0.385963910044167,0.820119985315529,1.06747662537749,-0.241891375075207,0.784395192361482
-1.67537793650301,-1.14891817807321,-0.361605563978508,-0.334598409224264,-0.576973730658964
-1.30829829836343,0.592512933297971,0.228704468876039,-0.795675708194575,0.0976054885959207
-0.48293589088539,-0.1755227556085,-0.352198891887864,-0.262392724542397,-0.23289633535786
-2.78246063264043,-0.406398938095626,-0.259633084010583,-1.23912417982648,0.802437999750602
-0.954068728049508,0.940379854153495,1.73076964099955,-0.220164185374654,1.09291573336985
-1.94285475890101,2.14818910930015,-1.0857100549258,-0.296140156370594,-0.626563986791227
0.364822791457112,0.0621848303253944,0.73972734171589,-2.19495777741843,-0.525750238173445
0.52927257693992,0.449246197881063,-1.14273316084249,-0.275329655101201,-0.971311065226322
-0.288635239813995,-0.70821678334199,-0.884996813047578,1.52636489247193,0.864840995715585
-1.21556898297288,0.156813162153262,-1.06627423107665,-0.0410492940942992,-1.49482617353003
0.978620221742273,0.662047300869219,-1.02626935436539,-2.01532481132125,-0.646199349706783
0.555356850854675,-1.07066879133773,-1.52901226339021,2.19357661873899,-0.925954527011333
-0.57663188750674,-0.691972005486833,-0.0624711290348923,0.25552489800808,-0.653947139713348
0.941968342184501,-1.20482601640797,0.61668143539782,0.613266570338227,-0.0278233112828855
0.997807588466478,-0.636965877772483,0.600417329027624,0.838959942329227,-0.402777737501612
-0.234785457271905,2.53929620849254,0.245297238135559,-3.08153220302876,1.48889311210299
0.0421091171006096,-0.0503556506679348,-0.439537862359823,0.34861717346748,0.051237624192873
0.928173331456519,-0.508753682656714,-0.819661841401556,-0.070820521542032,0.00322742478277171
0.893302638314694,0.0623563046726978,-0.717886064792021,0.310327134071068,0.667289931506146
-0.417895060860883,-2.91376492681899,-0.560253871794429,-0.490440926591788,0.120984021465857
-0.575213158279646,0.31067569064897,-1.31163596401212,-0.190661463005133,-1.72655701485374
-0.254794192871226,0.320708632921835,-0.542143855822433,-1.09048439397949,-1.74888890797268
-0.0696191616419343,0.172551456388297,1.42008326208758,-0.384679007070747,-0.738520516951276
0.586698125642846,1.30544800236197,-1.01986392651152,0.562720383265045,1.18418126080155
0.909680887456493,-0.704186928467278,-0.0760579858975095,-0.587583612017571,-0.883502113242574
-0.0141492471239777,-0.0107458082900815,-1.39678516320429,-1.6417275801184,-0.191699906985474
-2.20744239309271,-0.492731305579441,1.74712000447019,0.805013841665208,-1.2865769943035
0.405333341782503,-0.664290874763231,-2.20037019978864,0.786553177398315,0.0724593263624625
0.232455689770074,0.861558324403508,0.470301494877184,-0.786238145293679,1.99553590303441
1.09182719145446,-1.5404559680197,-0.304169189992893,-0.398351900239426,-0.5648536107818
-0.0824218843472551,0.932915617534845,-0.882394812626357,-0.878570730169895,0.311220280363769
0.431563574070744,0.543535588204881,0.898933288000546,-1.57338454330769,-0.537844660828953
-1.41301662562039,-0.498674226903338,1.51742131657249,0.819174238150977,0.752220974002232
0.836652124808578,0.828351414734895,0.215117510854997,1.50621059388667,1.57568464309217
0.426166869480116,0.947558445182704,-0.227535009747963,0.354342479823815,0.940050243281222
1.00223676486479,-2.13350281581209,-0.123863214971672,-0.390731470204267,1.03392767830505
-0.643706502365031,1.93793794118482,1.43258849335806,-0.654396011780095,-1.57232270055871
1.96565067468854,-0.324048374581006,-0.214929219769511,1.27389623142844,-1.74767406448924
-1.41259671314147,-1.24708050013069,0.222356227100435,1.23746951290575,0.020919152291779
1.17980471039021,-0.421134202381121,0.747952673963155,0.120659093135296,-1.34663126794363
0.213868019220632,-0.656234579677905,0.436772083974404,0.0377276485102949,-0.388221424405257
1.46262085955862,-0.191752448439259,1.01315925997651,0.315316531069023,0.171223988445004
3.08659843698337,-0.573359108363412,-1.43517042940185,0.718774772978263,-0.0400978611567206
1.83372709181066,0.025469779731849,-0.571525034152192,0.201607522523492,0.437794823302239
-1.5844495770516,0.844464461791444,-2.40481594001293,0.727669396190173,1.67281248600071
1.32567754415162,1.70016825519133,0.541134007642139,0.0143596320271748,0.913941136038971
0.232940075456583,-2.09860810628854,1.60388076151555,1.3993376563102,-0.842857528841372
-0.521879270916401,-2.10890772040063,-1.57389072458565,-0.465475597923849,0.280169667391711
-1.03206657782292,-0.608659936160874,-1.31680938923248,0.0280075056620875,-1.61847788337474
0.0322046309909838,-1.44164988351548,0.113697582267789,-0.590500303582071,1.4709153093906
-0.849678109973006,0.253866077904794,0.275924556148298,-1.24035354497046,0.741808484305511
0.0688371946533336,-0.906184886738639,-1.15254979790165,-0.147225250616933,1.12441075277502
-0.501580166832085,-1.53964630343407,-1.53066205762391,0.507808414922387,-0.662375828077122
-1.03284923820927,0.97351369914912,0.646074194719512,-1.80555957946034,-1.07575001832774
-0.274118450144987,1.16577081386129,0.446022087211099,1.03820399141221,-0.429972991925196
1.73928200092971,-1.18223356476763,1.13195533650673,1.68195213153797,-0.216430086048801
-0.270083698655679,-0.0400179348182188,0.290790463664015,0.624670398641537,1.21200273775765
-0.968831639444322,-0.0919061496208915,-0.327959115103643,0.113204444511329,0.150279882814126
0.250957388762661,-0.807734962976155,1.2790854752851,0.957732261318553,2.21898450242604
0.454963064590964,0.464537309812268,-0.327857361209404,-1.46256160953852,0.267745141177324
-0.607330809043528,0.29558252840997,0.262761694390738,-0.248276969751183,-0.731422140093904
0.0446745077894767,0.734650916662405,-1.04628304319069,0.467288153562691,1.0366846279446
-0.546866499332664,-1.52230896580504,0.775555900703965,-0.590032705389332,-1.20896499952468
0.205432750322038,1.21426997392952,-0.591639211829317,2.35334652290183,0.407141693280904
1.14705869289431,0.989530096208608,0.416302117048269,0.770789233963838,-0.253104804390345
1.10075482008127,0.206298568625575,-0.179640831702448,-0.668270138189127,-0.130966136378168
0.379430836913459,0.737155062271583,-0.137320926881638,0.629804894624905,-0.567205019287845
-0.643626122564302,0.485716009412795,0.110121387411334,0.654394642547545,2.13772720759982
-2.03873178125853,1.13441471909753,-0.784535942197695,0.332348969883013,-0.493321952197831
-0.209228088389991,1.07736869224261,1.12477457868423,0.757657198382575,0.206779237030082
1.5781174619408,-0.646922943917134,-1.1956647112583,1.06072586569586,0.553479689710298
-0.714850665389468,0.180266937445463,-0.144730369627517,-1.08408067510761,-0.642062328290149
2.11681231704674,1.4306206877991,-0.67833442000241,-1.03727542236325,0.226143863758854
0.849227076450828,0.870411401708628,0.0814538265784472,1.07631316023782,0.678806759655386
1.35040880553315,0.69363767044777,0.922080080578948,2.0596380420733,0.805944760082056
-0.50981988143781,1.95875446005489,-0.305809701318683,-1.04115657343384,-0.875042986494185
0.317151625430276,0.162695167164482,-0.530059715049131,-0.27385127754639,-1.04208529350659
-0.323599997193517,-0.482068717370465,-0.599272819570709,-1.24489709129745,1.08787214040763
0.821097390523647,1.45661510543831,-1.3710214191915,0.540629775350638,2.10867818758819
0.673089801129501,0.154280667296375,-0.73465878298516,1.05859553936845,-0.1502146105058
0.903202948264482,-0.464044530992422,0.689055152625096,0.535903351451234,-0.673022126439231
0.0579126353908412,-0.436468800336643,0.171234803145926,0.127592466172453,-0.913157299371987
0.237724543242103,-0.731837836755609,0.966991122477921,0.676937286506942,1.1835157777022
0.659775870643553,-0.245668162862739,1.10094547694982,1.09008422511273,2.01305367456113
1.42330882835837,-0.933806146498662,0.944027837014472,0.69717238417744,1.37015660573982
0.188610820860096,-0.624793908599267,2.13287257954429,0.231349442326098,0.692097635113858
0.199490269240229,-0.718413466440969,1.8742528359689,0.0619811360936866,0.53954706366051
0.66115322918678,0.362529384131418,0.837282331217609,0.166955530337314,0.402388939398073
-0.662465187295941,1.28281490130717,-1.22906721380726,-0.730414968178125,0.105463724469528
1.14141788722461,-0.286459388565399,-0.321631283721441,-1.89307317359354,0.786563961531623
0.180958278124488,0.588079547061399,0.312312137851902,1.64171783340239,0.983710454341094
0.576019638529814,1.03352031829893,0.596175767533457,0.432234432714086,0.683001966587738
1.67354556920734,0.0930345923248248,-1.68165972703932,0.352637342880264,-0.449561178141018
0.54650648205175,0.34614357578106,-0.517092971704784,-0.704013021944041,1.14737219667866
1.13142171007435,-0.586458394619595,0.74565750227549,-0.42430592382748,0.651539918029143
-0.77522696404671,0.402758247333646,-0.264207668183382,1.40995473227889,-0.741846696369086
-0.427875996917612,0.0333990718944292,-1.24381698939129,-0.926351997221528,-0.430345124474455
0.922824266471383,0.770251703550519,-0.200017145902431,-1.85764941697508,0.130335326352459
-0.340066669976007,0.548119395878087,2.3385821794666,-0.397255367516095,-0.771018750891638
-0.307445065314669,0.674092598948477,3.0482750679007,-0.208903771906512,-1.17116437979834
-0.557862951513625,1.49749480240413,-0.129632870468255,-2.7167450317584,-0.0596613263401777
-2.18737912054512,-0.354905449740182,-1.06381350189652,0.621915940268481,-0.437423423763931
1.08639875487391,0.836627116381749,-0.282775015687964,1.90306842883534,0.19037941122853
1.28890486359157,1.26115814238271,-0.108681175121916,-1.66003566520828,0.775477538685803
-0.383926633874693,-0.604162260745892,1.21220713304061,-0.183925618807886,-0.805005384380822
-0.00773772517265617,-0.55388747723201,0.832808979475929,-0.741342008538925,-0.89911200807267
-0.482337764634427,0.0418341529415361,0.332340031418477,-0.384338490440961,-1.13965606592541
0.193610372202755,-1.20214242154146,-1.56380692822479,-0.278649754089749,-0.992975404421084
0.0488848295372268,-0.135753428254567,-0.752247943848506,0.949784154466166,0.664380063627073
0.914313572264927,-0.519269825345132,0.0873806600385695,-0.970119740043703,0.940863289763266
1.74487172674653,-1.21169686883675,0.135026279879486,0.425025006567357,0.300949438622976
-0.553391259919813,-0.0399466380336913,-0.315405744817323,0.686119320069499,-1.86256733852746
0.947074685067947,0.163363596989874,-0.43969628257884,1.84728227583605,-0.615754260139816
1.11047738984566,0.311977533392989,-1.48061799615672,-1.27345403445239,2.08721630041954
-1.34998764241363,-0.786502388695714,-0.569438844257232,1.32946408368877,-0.535923560845579
0.648646722297238,-1.01623446484747,1.0359854231111,0.758751624352441,-0.0891299901152189
0.878689185127844,0.25955992825758,0.294385443173239,0.109992134765039,-0.532420510533148
-1.16942740181589,-2.26150606902927,-0.0828010928539451,1.77954797933019,1.15897703048721
-0.0755984236825992,0.968649046476366,1.65960306743067,0.0211171433405406,-1.59652664347185
-0.375186384556582,-0.519257516482096,0.674334155126333,0.756948427676261,-1.09492047952032
-1.43223895928095,-1.39176602881409,-0.580245203897567,-1.38524049224379,0.26245242861252
1.75208534113788,-0.854082053053213,-0.131255461874184,-0.354008104030851,-0.538223241546732
-0.00605486328105888,1.04145774996031,1.01575150889116,-0.608256204730416,1.0084569684344
0.478654023606462,0.924693087884288,1.17770492887703,-0.716419693339093,-0.749222988489766
-0.940232379782633,1.36576541672738,0.895950056970597,-1.80189976713508,-0.821027704989257
0.249996985195054,1.17954730756081,1.32284521961749,0.0263021050607641,-0.361133255689525
-0.165550012626879,-0.306513093533123,0.909744017543883,1.2607458099244,-0.267208967661183
-0.995016657627966,-0.28686738232398,0.282346255868881,-0.399084828910348,-1.26056488521067
0.519423053155923,-0.380832814004504,-0.670100532764152,-0.23267332595719,-0.252476919989391
0.0257122248973359,1.07378260562694,-0.386571332208224,0.0824567123445412,-1.08389087921642
-0.548608974695021,0.143775244785933,-0.742733504608709,1.04500434347236,-1.43166426191007
0.268862079969627,-0.362929108622122,-0.0843556235263281,-1.70817708147517,0.139537432977294
-0.374677577993763,-0.803441570690322,0.742286627463766,-0.48799099811002,1.04995910013033
-0.744620627410293,0.960884548312694,-1.97528176503539,0.317570674068496,0.284621653057597
-0.00730154978314139,-0.421797882192843,1.04852661663951,1.59179162312355,0.37051797597259
0.328029263044333,0.141217052932227,0.108757710910876,-1.24604886314542,-0.564439506887032
-0.510803175686102,1.15298317612129,-0.689664308140412,0.872161144727583,-1.24732815136125
1.59330411845945,0.96725198005932,1.28868217598407,-0.473044897617641,-0.0752699542971527
-0.97887232996522,-0.788858083539412,1.19612305908023,-0.0599417925873169,-1.1362923965964
-1.50273703786017,1.6222100360647,0.611291365800655,0.289399761834193,0.750847748936401
0.31654637571868,-0.774976564281655,-0.729011615991868,-0.039174867108531,0.0194281409989171
2.42802589510456,-1.11197696365668,-0.28486404160871,-1.77231607798778,0.581032802537503
0.417568675328239,-0.744992352116962,0.404475276004024,-1.01537088429528,0.263524420424918
1.76734545940892,0.199913659938759,0.544817864856903,1.68592633829182,-0.240032101888595
-2.21054017926726,-0.255669484067991,0.898906018799844,0.980954131774368,-0.625692483416094
1.7447944092372,0.607223574824861,-0.86982234905214,2.15526744229374,-0.547086390816162
0.198329857934021,0.667719331995182,0.742462839494941,-0.611786441308527,0.205157878579023
0.27874019136255,0.120141812791659,-1.28304062511901,-0.25230196509212,-1.4950069485915
0.579066832119877,0.903737816157637,-0.176980385715129,-0.407344929098838,0.754350983761775
0.693850182923414,-1.44787539913669,0.269409679707137,0.50108944893085,-0.182449787912741
0.334088113638482,0.502818911294645,0.0495657523137312,0.261651447874085,-0.259204651644788
-0.0290502956780243,1.53127783230783,-0.20112704953021,-0.0204878713111532,-0.297015574874878
-1.71109565528656,-0.634346435429982,0.0337226901381108,-1.76537675119678,-0.687549109338767
0.425386341700407,1.10362523586141,-0.82156485025638,-1.36701452984613,0.518114761502491
-1.20325964896037,-1.05256773550104,-1.53995049914913,1.3349727033646,-2.36149883521909
1.36404454458627,-0.429890199454624,0.950476870179432,0.504357730396223,-0.903869272362803
-0.363154822623527,1.70879434744872,0.584375635731497,-0.977406954089919,-0.846867424450315
0.428237189426138,1.28767739296574,1.04059462413146,1.16805140300741,1.2201184082688
-0.573236625510429,0.221299701517723,-0.906665471706866,2.57250723544604,0.978123381590905
-0.482042546436834,-3.19102575503904,0.610535162906465,-0.752801814136802,1.07606792682399
-1.4200673465546,-0.941862415202683,0.161775260217524,0.22403306890944,1.2092571964444
-0.310641800911675,-0.541180294233283,-1.28802798511053,0.371239878005639,0.264539379333311
-1.16557959766827,-0.541083818769464,1.52982398035813,0.299993267765709,0.0952338758515049
2.15440127906019,0.652327859820057,1.68658361539782,-0.87660644966234,0.320169576684889
-0.643635505829388,-0.0721774771728542,-0.816622227786066,-0.779951734545147,1.12962610308553
0.0343000263964712,-1.28021154350421,0.321063024878142,-0.511389687088942,-0.030577769860023
0.442679586634433,-0.50081245879291,-1.75719998110037,-1.98941630724088,-1.18759347487097
-0.0503743828230573,0.968757726633698,-0.877371262552355,-0.319591820054009,-0.0681878051112862
-0.950898893343596,1.51800765925345,-0.834710480581113,-0.767482551717818,-0.515557557988464
-0.62549801279675,-1.88196073823564,-0.126613810835954,1.04529905128008,0.502636769881572
-1.53911544343908,1.09700434481165,1.65236846200658,-0.199817195810594,0.366920494294413
-1.12813114080615,-1.40642594237741,0.368546766530412,1.40594283022551,-0.828988889773806
-0.114717927297511,0.632129321874393,0.766401808331801,0.595535132035058,0.186751132760681
-0.781180822445651,-1.2374079406503,-1.50575577085387,-0.651877545216207,0.0310174929830823
-1.3072692257684,-0.416457570286364,1.51517521793367,-0.661570190884777,0.876557267938481
1.93137290225075,0.0749883986285678,-0.201672620947404,0.371987385055829,-1.24475760305346
1.55346928660175,1.20424343291606,-0.455039307117001,0.791234660721623,0.18953872186799
-0.29632997948714,0.485681141551491,0.0708834832137262,-1.38692876737975,-0.208754016334198
-0.896536921857551,-1.74172481182792,0.236293804508449,-0.388423364078995,-0.363324003711926
-0.371826276850931,-0.336603142982149,0.30489528707516,-1.32777086159218,1.70047830963003
0.850329197649282,-1.36438165148095,-1.80518657798943,-0.392746181167599,-1.10108205550427
0.31011177325483,-0.951753558263149,-0.206297708239446,0.913976205691298,0.0292843428328691
0.871151199178301,0.925748893867316,-0.773135480582274,-2.02649264887986,-1.32195303069239
-1.6007809875144,0.378726130772232,-1.21237455858406,-0.384247122451102,0.440158384211544
0.709712779852945,1.78819851345778,0.495649380108684,-0.831606397816536,0.34332712044982
1.40464904734557,0.795977355967221,1.90491724908765,-1.55500636378163,-1.04736612096421
-1.35889222933879,0.716795967280684,0.943932423402562,1.49434814558877,2.64740629226243
-2.53180875318331,-1.00193077127485,0.64620918655768,1.5270079013284,-0.33889536418649
0.126022945050406,0.171950808657761,1.05698841907427,-0.110109336717841,0.305957991662353
-0.469731412401181,0.266172143438326,-0.0475377019463325,-0.864305020631716,0.499013029476168
0.148582471373828,-0.429547576636344,-0.932370438952227,1.83863169451897,-0.683145233765149
-2.04150934509064,0.622375098035847,-0.0527411029332863,-0.459527839743201,0.660649268822103
1.5057152126067,-1.90515563852971,-0.286475461130164,0.170042184753651,-0.485941786030542
-0.657175592071567,-0.66308008126021,-0.242544670046422,-0.957927558224767,3.18696627441029
0.282441791459728,1.22209726198807,-0.184394154545547,0.168545295476297,0.0443755461038303
0.383574202800091,0.352399552575753,1.73783462511222,0.409041579755482,0.163653432855263
-0.0913560514166265,1.53746507535154,1.47470380827068,-0.254028794884138,-0.799968010796668
-0.418798957481026,0.40837323256987,-2.67540852674889,-0.522732236439929,0.000510460603870532
0.709315477037354,-0.498555780765522,-0.103023158995297,-0.154071789424023,-0.323722451687075
0.718168760442142,1.58607330204505,-0.309345833115329,-0.219733917278533,1.02348017913656
-0.146316972304579,-0.654899309100798,0.762782398691285,-0.55119358333479,-0.993463132841188
0.0456178051642053,-0.160868274012102,0.566945029285929,-0.790224025974009,-0.863447507685675
-1.06677781874007,0.297085377048172,0.0764190309658076,0.449454785859755,1.55679443487903
-0.569459489689268,-0.757668129506345,-0.557408468881187,0.0937477512124191,2.04527813376836
1.34393425465834,-2.04055980201619,0.494952169015312,0.0364768923587391,-1.62084745637159
-0.907338777790949,-0.789994200305427,1.95150082563276,-0.116502689487427,-0.314678485230314
-1.03697470018642,0.785670412286485,0.717042579870519,-1.08394539804302,-0.760224184008086
0.0215506474222806,0.660333530987546,-0.525266242404804,-0.766315446314356,-0.321797925724583
-0.959834466551119,-1.22204381734247,1.13039304062808,0.549832243870415,-0.207561388724732
-0.330321644154617,0.801131138310193,1.71336585927457,-0.574891337439252,-1.14391029903259
-0.105142266645178,0.420987687355031,-0.617425789211216,0.946853683816704,-0.853726996982815
-0.325667507622151,1.02294529683672,-0.0273326879841048,0.0498604449350592,0.0695206025578235
0.190387656366057,-1.56209504544115,0.467716600606222,-0.774816597427252,-0.139437993296314
0.458661856577294,0.534040371460779,-1.72370924900439,-1.08985970698255,-0.494867088058828
0.314455577784227,0.745634694301179,-0.9170620817936,-2.9051132604109,0.258301825478521
-0.0298988492643429,-1.62028741173086,2.26006600633453,-0.52607552310128,1.84886577251371
-1.69098875672021,-0.0438642466692889,0.372335410940569,0.30584673452512,-1.30839452145262
0.894287098749167,1.82635766718695,0.799377927982493,-1.15385995832049,0.141152308817742
-2.11380246804195,-0.896487108376365,0.833702154823681,-0.104246005098626,-0.583108311494901
-0.711819964195573,0.35212348547518,1.22391066172446,-0.542514026362551,-0.286741571611014
-0.367751538773275,-0.800134164814004,-0.901945896348268,-0.639815110333093,0.0357823542371543
-0.916558940736679,0.151019299205037,-0.352278248473408,-0.323522992666812,-0.368239849083844
0.0720575389487637,1.62977383563359,0.326798633503483,0.141510139957803,1.31722721943227
0.457662036065582,-1.19374369162205,-0.795927782179151,0.644807174545594,0.276770166468213
-1.03334847528833,0.973745019569381,-0.184294753111019,-0.676617060092481,-0.207201574843373
-0.0378866987327663,0.392364357183848,-0.342763803069377,-0.185903704732404,-0.223316230063292
0.889290902196403,1.79266463398132,-1.1784377008376,-1.92530934590616,1.19229765265167
0.780373395278156,1.28087459535647,0.607989606673406,0.283958755696607,0.806542903412435
-0.557784161208764,-0.83543408814151,-0.963564957038379,1.99022666485993,0.426229680791548
0.0702919928225354,-0.184630946639487,-0.575771406444794,0.463456300717717,0.97061890408332
0.275205937755547,-1.05756984274476,1.89809462145709,0.474700004528454,1.22082799306969
0.292269752426143,0.653939249045473,0.618482696947049,1.62636246061406,-0.387187588852345
-0.262640466758349,1.22877171060943,0.310457019639766,-0.238085060027738,-0.561266937711723
-1.50063539733935,0.660448899088977,0.582883105433894,0.297228792859419,1.12488893561758
-0.139602914878579,1.51682709296625,-0.265607485286943,1.49723981932065,-0.531825219043703
-0.505679257276625,-0.0272608609870468,1.36831821828227,0.0379483215430765,-0.845640304321031
-1.49071934387878,-0.197934907999706,0.54932214577698,-0.607125849598319,-0.780926336016182
-1.67582976855626,-0.527972921841763,1.40271491262694,-1.18715107972969,-0.252374831394081
-0.81260575550281,0.753141989473358,0.043307928447811,-0.954749825666106,-2.09606679896751
-0.236093166407262,0.843349008545772,-0.192377647548005,0.992678786195278,-0.0844433182295033
-0.500379406425688,0.0621784889674365,0.226986974629743,-0.455221089914243,-0.566355776366014
-0.240519318482873,0.500940191384802,-1.37782513698213,1.27463956205271,0.484369792843889
-1.35300381760987,-1.03604375433296,0.21828541540309,0.875595360096469,-0.541201950500366
0.503659986863935,-0.628171588400737,1.64352385368078,0.37745068650113,-0.0550654112375596
-1.33896657971376,0.715151425569329,0.397748616809556,0.62072332365175,-0.402889044259501
-0.360985661020052,-0.878388194205494,0.596165329132158,-0.231363254440786,0.805498080583274
0.16887107740632,-0.834852817961719,-0.0904150490196833,-0.108852121659074,-0.769813317192326
0.734422011834006,0.723263095023871,-1.11430964895018,-0.52926547881836,0.258350560476178
-1.23419792051595,2.11633589010932,0.202939524217255,-0.634110094010043,-1.86229182713841
-0.176486106250483,-1.32520291222714,-0.0493832665661437,-1.24156058402106,-0.539644940882364
0.540714590238977,-0.211564150309683,0.653127109838465,0.899660343242597,1.24611698276763
1.85641351108168,0.217412867310349,0.984715811683986,-1.37767406151687,0.736340213409691
0.264926241001963,1.25136882454193,1.18374489628314,0.220805034950506,-0.132891592844023
1.65967243217891,-0.0719159424057895,0.319710442435234,-0.652505251734092,-0.862790834468054
0.101339394424098,0.111114395739326,0.424121435479689,1.83463160284334,0.79900681589116
2.04435827784714,-1.51645992222539,-0.318333389425666,-0.986368850891241,-0.474090627853254
1.60236181782858,-1.09804092374704,-1.07520908032907,-1.16242411325968,-0.725572954157576
0.00792474733557195,-1.16906937010368,0.66065250327384,-0.380702993531825,1.05272152275923
2.00994416409163,-0.158095682530255,0.649854526209618,-1.30573362976022,-1.81754685688995
0.391987342262162,-0.0394126625955394,0.239313435026887,-0.104642979575427,-0.39459232014298
-0.875951149692931,-1.52697359356391,-1.19251291861207,-1.4411332277893,0.927196251880578
-1.58225362990515,-0.708414887599854,0.901192390613411,-1.38972969818787,0.425205437517036
-0.375994043967531,0.878155968794876,-1.31386956334282,1.31712408688506,-0.248449804523747
-0.542898523352805,-0.349331501799281,2.16582966242416,1.06563832398941,-1.32330682625867
-1.79292334325074,-0.893053057278627,-0.194405435124826,1.43111853706747,1.22138433362032
0.765229418976309,-0.656597541756619,-0.0962574580394696,-1.27950604290762,-0.13634883029336
0.81336978311435,-0.612390795628075,0.479209215312769,-1.1272208650836,2.02697911354905
-1.46466591312439,-0.0877442857593036,0.046288603503328,-1.63608932343896,0.0314263669271368
-1.65693570204428,0.886415637097654,-0.80961121143557,-0.0903275553233094,-0.00461252608174369
-0.415855430023452,1.53838055904259,-0.539531458090937,1.23163533969529,-1.86053966785976
-0.503504425581044,0.677116942859865,-1.04736949288633,-1.22946871872018,1.10487131975157
0.708576970419742,0.244156639546762,-0.639269522638167,-1.88700667860423,0.148291400328489
-1.80341342889974,-0.237554668620241,2.76205840783232,-0.365048546795762,0.552960092510317
0.520307377659384,0.609251391320918,-0.772027314566087,-0.645097213421238,1.05992195070732
-0.685312262914282,0.216086480403883,1.16868959385229,-1.0340775139073,0.778485020766159
-2.49416836389927,-1.14856719207126,1.27665551634172,1.06887107680286,1.04013662239634
0.695738048479061,-1.66782659919603,0.346920033509368,-0.588873932586196,-0.397669108606074
0.799873174179721,0.960856747266383,0.303765150772483,-0.605135031826722,1.13088234787163
1.15014433960003,0.403266871900339,0.198386047777362,-0.611784964348471,0.956483125710245
-0.994052701996223,1.27009624108976,0.0177672241205253,-1.55698015819956,0.158999874385335
-0.522005697546312,-1.05120879589366,0.997058121277483,-1.2238024291225,-0.791344687388072
-0.201654606170774,-0.591383886607425,1.24843027840601,1.16606724059283,0.573605592409347
-0.903859564795215,0.335058269109861,-0.66309643085695,-0.696479168511143,0.210216809611333
1.17325543051448,0.766726829941517,0.904686507381181,0.471925302775161,-0.293664632277688
2.23008989050702,1.32438971371832,-0.00585378432183928,0.458819491209211,0.124495509136834
-0.0553419269640612,-1.69408683624542,-0.847182553574357,0.909674213885895,-0.882841537172599
-0.288506275406976,-0.111549681109268,-0.374460373060364,1.34546341825891,-0.645565633646241
0.251244560363983,-0.0285746123564855,-0.0587510943265795,1.0909078855503,0.239030108480782
0.164133802857872,-0.836902877617182,0.677290472368788,-0.594421116807479,-2.73163284132601
0.928411180519971,-0.124658925456202,0.791859494080581,-0.781144802701912,-0.324910005873716
-0.940934396443552,1.50206848186577,0.612089627877844,-0.0141705676220926,1.03618106436315
-2.15480237959056,-0.188722060684993,1.24598948956444,0.734999773581331,-0.309059903134265
0.405962811016712,0.797022581797853,-1.05560840511759,-0.863811910654056,0.776475690290982
2.63568377015128,-0.170268309849653,0.489756836546151,2.12269661704006,-1.84688361555206
-0.941093480846807,0.900057703108797,0.417422545541274,-2.32670153312497,1.26039043954306
1.00959695027381,-0.939367679663458,-0.989125258065869,-1.93217339484776,0.982572242599504
0.919138211258593,1.05165329319385,0.260858524771737,0.889551361707748,1.06608219102256
2.0289963613524,1.90875018096685,0.795341710234069,0.123935951601819,-2.33245684804088
-0.213476386698252,-1.31478278425529,-0.30570888979353,-1.47454417151924,1.76427149120552
-0.742002165314159,0.0527288162950769,-0.0836262055559443,0.823511100851936,-0.0479959223266072
0.955857377182609,-0.660614148646668,-0.388756160521162,-0.123448797044917,0.088527058333126
0.221419555064998,0.618685191223618,0.810845627745501,0.921774276890952,0.685576078322187
-0.468344948637131,-1.15224717260416,0.744647125181289,0.379310188132696,-0.244015072088033
0.916839443937704,1.7221433561004,-1.1372467813784,1.00644406835246,-0.442275287317269
-0.458908909007178,0.599517206293915,-0.581621692588921,-1.54110017105194,1.16587117158806
0.76958830864828,-0.142241061433421,0.547921669670634,0.0891320031352594,0.0862725518701377
-1.71549707208548,0.984076726320662,-0.447847173166545,0.23315774211334,1.08216469106853
-0.109078247424374,1.9208725104999,0.404903812048112,0.565921858392382,-1.90038825629943
0.430389364519368,-1.21910257867982,-0.782352405426699,-1.1875905507146,0.0146462797353343
1.24720809089444,0.149930460556438,0.481043654850901,-1.12252780099187,-2.39035475475614
0.515303348293511,0.659752003828313,-0.353692198346044,-0.74851376182325,-0.835548201044759
-1.06669950144953,-0.776162023945036,-1.95886986999374,0.0949117278153399,-0.850121587098157
0.671619785916821,-0.208349815705222,-1.21156009875229,-1.10661447293653,-0.808916029470848
0.693213021672487,-0.518251253723334,0.369598008728213,-1.21571386772013,-1.05684998787928
2.03289223280357,0.507288567412369,-0.677916345955328,-0.606714862553632,0.53745612940654
1.82889295197904,0.127590560239012,0.0523572330544857,-0.569365370981326,-1.57612836104156
0.240535834054732,2.31163549097578,-1.83718925178237,-1.0086801647366,-0.125937918342903
-0.335203950507483,-0.376428091851484,0.85022836987062,0.20670469734542,-0.457629202154131
2.49878189385534,-0.438165682121499,-1.05107949211515,-0.925414740331056,-0.0247375032543402
-0.539888786009248,1.10779181063432,1.19645253625931,-0.601616027186424,0.420247926420764
0.575755448901659,0.138309060556764,-1.46393407492299,1.18703942848214,1.78685437046656
-2.12831961447631,-0.363656343362539,0.497444806816803,-0.307577159275564,0.247620417751685
1.51999137927146,-0.460013931515609,-1.22681239438112,0.184954991318926,0.77300954868377
0.764174722802805,0.32054413265429,0.372579251208503,-1.28880568574537,-1.24505917780432
-0.180868959737133,0.434142219067982,-1.57178683896272,1.29983827445646,-0.293111052144053
-0.816386688102524,0.213608432815464,-0.584241619288159,-0.107872410117957,-1.20241575264403
0.587159323587596,-0.146335951163679,-2.28074244193596,-1.08770826030946,0.895312046941393
1.17990894865912,1.02361899526157,-0.770748958615178,1.18615484083318,-0.731463442665072
-0.796300009079646,1.33066851034046,0.69135435956311,1.35016680145535,-1.18532163519174
0.173459344317223,-0.676352516114316,1.56397302675437,-0.59288800543038,-0.323240774192975
-0.259672992092762,0.0782728469902951,-3.25664574250571,0.431140701840691,-0.740922596588181
0.166802334878418,0.472964029122479,0.789551284831434,-0.757723359573445,-1.16507099314706
0.0650181036155498,-0.134745404773205,-0.836642276817252,-0.30714401610339,-0.0418752689834059
-0.155157722171295,0.867052663442251,0.821319196956926,0.313693723260681,0.478341437506582
0.670180061481187,-0.201154865860434,-0.815568099976917,-0.307719478906386,0.906429154165651
0.288087062059405,-0.441473537905158,-2.05391412945831,0.142555255750143,0.595938195158707
-1.17431619775854,0.936730406573972,0.353108019044961,-0.322288651425134,1.16379391011274
0.40137637338231,-0.841063368114168,-0.53613184433389,-0.437004550745405,0.140813202183627
1.46660916877825,-0.562499276605731,-1.15530013354434,0.692059237827647,-0.860498827310777
0.00959187579512999,-1.10950877337932,-0.387282451841255,1.25494485535213,-1.67005791531454
0.668796336129184,-0.223285333404595,-1.85757544429414,1.72798238473244,1.44897076050488
0.300373345359732,0.555875563601596,0.211209104396953,-2.52113769312693,-0.316890206741168
0.431163955769131,2.81473561982489,0.667406498024337,1.32478939165144,0.0433605016118621
-0.429910665335099,-0.447266941453728,0.259692488450393,-0.529781684749239,0.542380506124402
-0.00165246221346364,0.0145783030168485,1.01449837538584,0.932982997780431,-2.58184546439894
2.26605813537215,-0.124973504982949,0.50712111586749,-1.53748487186212,-0.128918469695872
-0.972145097913465,0.963605424472316,-1.03393965141326,0.996907569082903,-1.05797955980775
0.173074475419442,1.26940117426431,-0.0637530498596689,-0.145030700266396,0.706710062088349
1.02451966963751,1.87466958953279,0.301027029463362,-0.0743688462289118,-0.0895670955215602
0.407432633064178,-0.23971496739811,-1.38160036829546,1.48079026246031,-0.949296445013266
-1.52133619672993,0.155036394345154,-0.0461060386667781,-0.488982908558798,0.211009360161249
0.242700684244061,0.526584619416454,0.601378385568877,-0.829050671204079,-0.087222986446825
-0.943613318419609,-0.0360725644321776,1.35064502894681,-1.53145626145978,-1.39121493681179
-0.0964406527370461,-1.44045958716095,-0.372747883502609,0.683870003472037,0.814418816555433
0.08865893610096,-0.496840456207874,-0.921128281549082,-1.72480512581215,-2.29570515450278
-0.359272035522336,0.0468130638333846,-0.514265799211491,-0.0224031782243272,0.916068073904662
-0.197872533363312,1.31823713745202,-0.369288547281952,0.656712597253027,-1.79005216684941
-1.31918314657736,-0.288774739487549,0.0474599911701993,-1.29767565945919e-05,-0.646425180399037
0.533522167088747,-0.449955747354679,0.132291714921104,1.96182288181736,-1.44722311286897
-0.56891796813582,-0.547590667771945,0.472826822774554,-0.306264682539187,0.460670563739682
0.890688914292292,0.140431829964677,1.27519975220818,-0.396347858899105,1.35655905480875
-0.259863718678703,-0.465842309454146,-1.25500898306691,0.841584839449505,0.402292025023605
-0.2325690282494,-1.46762708165487,1.81527183689655,1.7950848765592,1.17959870310699
1.4537154939644,-0.0661364558910727,-0.633682346208122,1.53288756542438,-2.00621343643553
0.526767325846775,-0.91197530717524,1.01308896527912,0.0295858437004032,-1.68191890688687
0.268953904690983,-0.333381425705045,0.876721904317885,-0.338791864059258,-0.625760659598758
-0.688917227558411,-0.628109248114787,-0.347179751636531,-1.39296681151456,1.39073994809252
-0.360931586645346,2.72573862800156,0.360518466059942,-0.73969006745058,-2.38838935350406
0.970547945350234,-0.0552119697009424,-1.16428536021783,-0.0778579629405796,1.5575414318896
0.306530976188724,0.227587040025216,0.569312917587713,0.401162933245152,0.0249774264656595
0.809005586212542,0.650210780092269,-0.39766909277868,0.31774742183725,-0.73157358205228
-1.87881835434663,-0.506983302174468,0.851396403571447,-0.151294389540697,-0.0404728876399668
0.219652579223519,-1.71790145714146,0.808788619159278,0.365474204144437,1.20410127777472
1.13055220885575,1.84466291292422,-1.27158596357803,-1.44317626688289,-0.603734171107746
0.0223934669905245,0.749363117149321,0.866054926376303,-0.979150331636277,-0.941848412517851
1.1920912679918,-1.76394255389259,0.607936076700381,-0.196928927938064,0.147440233127513
-0.297782359723486,-0.170701486468574,0.047987792722923,0.0607146412716638,-0.321336017130112
1.11228019528914,-1.12090139086942,1.44960000232285,2.52555151843023,0.325808043898608
-1.23623513678865,1.60418564248805,0.937504450516721,-1.58663450141038,0.171416433155771
1.26592717270893,-0.830232413489711,-1.46026533178988,-1.43061426073861,-0.567959306989908
1.16794885868149,-0.563995229856605,-0.37379134108676,-0.686320075917425,0.207701581719067
0.776524762511546,0.733645717484247,-1.85993347232122,-2.26412361411013,-0.640026022015059
-0.0345769918254109,0.64694812761768,0.295088766082581,0.272461492110021,0.723684444573272
-1.16976717070495,0.998500570251187,0.536608097873654,0.769512068794045,-0.716983585146142
-0.201334869439577,0.759890454031569,0.166802404195859,1.17147905190821,1.22619077523425
-0.420860965633662,0.406540844988187,0.222638668452594,-0.732687875339284,-0.125978660227943
-0.823708134439661,0.509956723554349,0.245702413684537,0.742004689429017,1.10853933273157
0.392524739871809,1.00900642143383,-2.44147586630545,0.00808503816878761,0.187723906406746
-0.619714967568651,0.841980675547446,0.362393311038823,0.764108615197705,0.329189114881523
0.408143151594303,1.80237240760191,1.41635363561479,0.0979210827376458,-1.98964691971396
-0.289453460281681,-0.655629039207897,-1.80728393186324,-0.89982964237854,-1.16829963635919
0.598027440819517,-0.555776972405839,-1.02943968647734,-0.580576920713115,-1.15761097968132
-0.958578594543144,-0.291126681889568,-0.46989549682961,-0.279540716095801,-1.25649888662335
1.61376446376958,1.67434405650979,-1.9650379919336,-0.266942493398084,-1.24525169209001
1.26630472179224,1.09232054302363,1.40246198374403,-0.703819685114905,-0.0566200472310458
-0.524775415587658,-0.360726584430895,0.678049041355724,-0.627491095114268,0.252109597351466
-0.908153230807666,-0.235404069198203,-1.36162576072622,1.28860080178341,-0.0199948350903904
-0.327952391273435,0.437282293701521,0.894639521536529,0.965406382002536,-0.893595145248782
-0.0030938500270297,-1.29439967433164,0.180330188402185,1.37839845182758,0.0626198176767431
-1.46046614664254,-1.42675442461316,1.30647784653073,0.647297896612323,-1.93138414111623
-1.08562377285846,-0.866009696539081,-0.689824323159465,-1.19740085664348,3.40108783259712
-2.13479542929483,1.31091367095991,-0.546454507397629,0.0792260634200163,-0.37402522088145
-0.268482712438933,-0.517215091068873,-0.385984477452028,1.6947812160298,-0.703471682560156
0.0570512531308798,-0.141461258800321,-0.26769473844157,0.650386740130521,-0.162070192747689
-0.201247001245262,-0.015075851727221,1.44629926246158,-0.940689655404678,-1.19145448803989
0.15570042589414,-2.79970677111054,-0.843892806916416,-1.00931769380929,1.41285716065702
